Data from USB4F104151__60__10-43-48-474.txt Node

Date: Wed Feb 26 10:43:48 EST 2025
User: louis
Spectrometer: USB4F10415
Trigger mode: 4
Integration Time (sec): 1.000000E-1
Scans to average: 1
Electric dark correction enabled: true
Nonlinearity correction enabled: false
Boxcar width: 0
XAxis mode: Wavelengths
Number of Pixels in Spectrum: 3648
>>>>>Begin Spectral Data<<<<<
178.204	-441.51
178.424	-441.51
178.644	-441.51
178.864	-447.65
179.084	-388.26
179.304	-93.35
179.524	-40.11
179.744	45.91
179.964	109.4
180.184	2.9
180.404	0.85
180.624	54.1
180.844	-23.72
181.064	-46.25
181.283	-5.29
181.503	-56.49
181.723	52.05
181.943	-126.12
182.163	166.74
182.383	7
182.602	50
182.822	123.73
183.042	0.85
183.262	-50.35
183.482	37.72
183.701	2.9
183.921	31.57
184.141	-38.06
184.361	17.24
184.58	13.14
184.8	35.67
185.02	-9.39
185.239	93.01
185.459	156.5
185.679	37.72
185.898	-124.07
186.118	9.05
186.338	105.3
186.557	84.82
186.777	-83.11
186.997	-15.53
187.216	68.44
187.436	172.88
187.655	62.29
187.875	164.69
188.095	-52.39
188.314	103.25
188.534	140.12
188.753	7
188.973	127.83
189.192	156.5
189.412	11.09
189.631	25.43
189.851	119.64
190.07	129.88
190.29	33.62
190.509	-52.39
190.729	66.39
190.948	82.77
191.168	271.19
191.387	33.62
191.607	2.9
191.826	45.91
192.045	39.76
192.265	-7.34
192.484	99.16
192.704	-17.58
192.923	-1.19
193.142	150.36
193.362	0.85
193.581	183.12
193.8	23.38
194.02	103.25
194.239	23.38
194.458	56.15
194.678	7
194.897	-23.72
195.116	27.48
195.335	58.2
195.555	90.96
195.774	0.85
195.993	72.53
196.212	-9.39
196.432	-1.19
196.651	15.19
196.87	43.86
197.089	230.23
197.308	39.76
197.528	62.29
197.747	-99.5
197.966	78.68
198.185	90.96
198.404	29.52
198.623	93.01
198.842	95.06
199.062	56.15
199.281	121.68
199.5	54.1
199.719	78.68
199.938	23.38
200.157	95.06
200.376	146.26
200.595	60.24
200.814	111.44
201.033	-60.59
201.252	117.59
201.471	84.82
201.69	19.29
201.909	25.43
202.128	95.06
202.347	109.4
202.566	21.33
202.785	-7.34
203.004	0.85
203.223	267.09
203.442	-15.53
203.661	-5.29
203.879	13.14
204.098	78.68
204.317	-25.77
204.536	15.19
204.755	33.62
204.974	23.38
205.193	-36.01
205.411	84.82
205.63	99.16
205.849	105.3
206.068	-17.58
206.287	-29.87
206.505	142.16
206.724	17.24
206.943	39.76
207.162	25.43
207.381	58.2
207.599	25.43
207.818	23.38
208.037	56.15
208.255	39.76
208.474	37.72
208.693	160.59
208.911	41.81
209.13	97.11
209.349	136.02
209.567	144.21
209.786	125.78
210.005	95.06
210.223	-27.82
210.442	-162.98
210.661	41.81
210.879	35.67
211.098	39.76
211.316	31.57
211.535	93.01
211.753	78.68
211.972	54.1
212.191	-13.48
212.409	25.43
212.628	131.92
212.846	-79.02
213.065	66.39
213.283	86.87
213.502	-9.39
213.72	-3.24
213.938	11.09
214.157	-42.15
214.375	123.73
214.594	7
214.812	39.76
215.031	-64.68
215.249	-38.06
215.467	58.2
215.686	-9.39
215.904	19.29
216.122	54.1
216.341	97.11
216.559	-7.34
216.778	109.4
216.996	148.31
217.214	-25.77
217.432	-40.11
217.651	-87.21
217.869	31.57
218.087	78.68
218.306	0.85
218.524	7
218.742	-3.24
218.96	39.76
219.179	78.68
219.397	-9.39
219.615	252.75
219.833	88.92
220.051	0.85
220.27	107.35
220.488	76.63
220.706	56.15
220.924	-48.3
221.142	-19.63
221.36	144.21
221.578	11.09
221.796	-25.77
222.015	105.3
222.233	82.77
222.451	148.31
222.669	-62.63
222.887	144.21
223.105	-68.78
223.323	-81.07
223.541	-44.2
223.759	93.01
223.977	29.52
224.195	152.4
224.413	119.64
224.631	88.92
224.849	74.58
225.067	222.03
225.285	-15.53
225.503	-21.67
225.721	-21.67
225.939	-70.83
226.157	70.48
226.375	154.45
226.592	54.1
226.81	41.81
227.028	107.35
227.246	31.57
227.464	-5.29
227.682	84.82
227.9	105.3
228.117	52.05
228.335	78.68
228.553	-1.19
228.771	15.19
228.989	11.09
229.206	111.44
229.424	7
229.642	-38.06
229.86	17.24
230.077	115.54
230.295	23.38
230.513	82.77
230.731	7
230.948	140.12
231.166	156.5
231.384	-38.06
231.601	17.24
231.819	166.74
232.037	7
232.254	-21.67
232.472	21.33
232.689	23.38
232.907	101.2
233.125	4.95
233.342	11.09
233.56	17.24
233.777	62.29
233.995	-42.15
234.213	115.54
234.43	82.77
234.648	39.76
234.865	-9.39
235.083	93.01
235.3	70.48
235.518	119.64
235.735	174.93
235.953	31.57
236.17	50
236.388	-66.73
236.605	17.24
236.822	109.4
237.04	76.63
237.257	7
237.475	7
237.692	37.72
237.909	119.64
238.127	-29.87
238.344	37.72
238.562	0.85
238.779	0.85
238.996	-93.35
239.214	58.2
239.431	78.68
239.648	-74.92
239.865	156.5
240.083	-1.19
240.3	-68.78
240.517	-3.24
240.735	-23.72
240.952	176.98
241.169	35.67
241.386	113.49
241.603	17.24
241.821	-9.39
242.038	86.87
242.255	95.06
242.472	-31.91
242.689	33.62
242.907	84.82
243.124	15.19
243.341	9.05
243.558	23.38
243.775	11.09
243.992	-27.82
244.209	78.68
244.426	209.75
244.643	80.72
244.86	56.15
245.078	129.88
245.295	43.86
245.512	90.96
245.729	37.72
245.946	39.76
246.163	64.34
246.38	54.1
246.597	17.24
246.814	64.34
247.031	41.81
247.248	54.1
247.464	129.88
247.681	15.19
247.898	37.72
248.115	150.36
248.332	-19.63
248.549	154.45
248.766	93.01
248.983	27.48
249.2	86.87
249.417	74.58
249.633	-48.3
249.85	138.07
250.067	64.34
250.284	95.06
250.501	125.78
250.717	31.57
250.934	-56.49
251.151	21.33
251.368	95.06
251.585	41.81
251.801	60.24
252.018	35.67
252.235	33.62
252.451	-56.49
252.668	33.62
252.885	125.78
253.102	136.02
253.318	27.48
253.535	56.15
253.752	-50.35
253.968	0.85
254.185	-85.16
254.401	50
254.618	144.21
254.835	-13.48
255.051	103.25
255.268	115.54
255.484	58.2
255.701	125.78
255.917	-19.63
256.134	9.05
256.351	88.92
256.567	-89.26
256.784	-38.06
257	-23.72
257.217	84.82
257.433	25.43
257.65	27.48
257.866	80.72
258.082	-91.31
258.299	-64.68
258.515	33.62
258.732	2.9
258.948	-48.3
259.165	39.76
259.381	0.85
259.597	82.77
259.814	62.29
260.03	15.19
260.246	-21.67
260.463	97.11
260.679	201.55
260.895	66.39
261.112	86.87
261.328	54.1
261.544	11.09
261.761	164.69
261.977	9.05
262.193	-68.78
262.409	154.45
262.626	107.35
262.842	66.39
263.058	43.86
263.274	90.96
263.49	123.73
263.707	107.35
263.923	84.82
264.139	-44.2
264.355	4.95
264.571	50
264.787	72.53
265.004	95.06
265.22	35.67
265.436	-1.19
265.652	-48.3
265.868	74.58
266.084	-128.17
266.3	13.14
266.516	2.9
266.732	47.96
266.948	41.81
267.164	21.33
267.38	95.06
267.596	95.06
267.812	258.9
268.028	15.19
268.244	-7.34
268.46	39.76
268.676	52.05
268.892	58.2
269.108	-17.58
269.324	-54.44
269.54	-79.02
269.756	150.36
269.972	-76.97
270.188	13.14
270.403	-31.91
270.619	-29.87
270.835	54.1
271.051	-99.5
271.267	31.57
271.483	2.9
271.698	93.01
271.914	37.72
272.13	86.87
272.346	4.95
272.562	13.14
272.777	123.73
272.993	-1.19
273.209	17.24
273.425	68.44
273.64	-87.21
273.856	54.1
274.072	-62.63
274.287	11.09
274.503	2.9
274.719	115.54
274.934	-15.53
275.15	-103.59
275.366	66.39
275.581	-81.07
275.797	35.67
276.012	86.87
276.228	-60.59
276.444	29.52
276.659	201.55
276.875	13.14
277.09	66.39
277.306	58.2
277.521	68.44
277.737	9.05
277.952	152.4
278.168	66.39
278.383	68.44
278.599	50
278.814	64.34
279.03	-29.87
279.245	90.96
279.461	-1.19
279.676	121.68
279.892	-52.39
280.107	-62.63
280.322	43.86
280.538	-31.91
280.753	-21.67
280.969	121.68
281.184	41.81
281.399	105.3
281.615	66.39
281.83	105.3
282.045	-38.06
282.26	86.87
282.476	43.86
282.691	72.53
282.906	74.58
283.122	39.76
283.337	-54.44
283.552	95.06
283.767	-17.58
283.983	136.02
284.198	-36.01
284.413	37.72
284.628	-101.55
284.843	90.96
285.058	54.1
285.274	-3.24
285.489	41.81
285.704	127.83
285.919	-7.34
286.134	39.76
286.349	66.39
286.564	17.24
286.779	123.73
286.995	15.19
287.21	-91.31
287.425	60.24
287.64	13.14
287.855	56.15
288.07	-5.29
288.285	131.92
288.5	62.29
288.715	99.16
288.93	-17.58
289.145	11.09
289.36	13.14
289.575	-21.67
289.79	84.82
290.004	76.63
290.219	56.15
290.434	-15.53
290.649	-17.58
290.864	99.16
291.079	23.38
291.294	31.57
291.509	47.96
291.724	35.67
291.938	-33.96
292.153	95.06
292.368	13.14
292.583	50
292.798	58.2
293.012	76.63
293.227	144.21
293.442	62.29
293.657	21.33
293.871	158.55
294.086	-48.3
294.301	217.94
294.516	70.48
294.73	27.48
294.945	-48.3
295.16	19.29
295.374	119.64
295.589	156.5
295.804	4.95
296.018	37.72
296.233	99.16
296.447	64.34
296.662	-23.72
296.877	103.25
297.091	64.34
297.306	82.77
297.52	19.29
297.735	11.09
297.949	9.05
298.164	9.05
298.378	-25.77
298.593	-21.67
298.807	-11.43
299.022	45.91
299.236	101.2
299.451	13.14
299.665	21.33
299.88	-9.39
300.094	95.06
300.309	-7.34
300.523	2.9
300.737	-11.43
300.952	101.2
301.166	-19.63
301.381	-48.3
301.595	39.76
301.809	74.58
302.024	31.57
302.238	-27.82
302.452	197.46
302.667	60.24
302.881	181.07
303.095	97.11
303.309	52.05
303.524	-38.06
303.738	31.57
303.952	-70.83
304.166	9.05
304.381	-81.07
304.595	150.36
304.809	47.96
305.023	-17.58
305.237	50
305.452	-13.48
305.666	86.87
305.88	84.82
306.094	78.68
306.308	0.85
306.522	50
306.736	-9.39
306.95	101.2
307.164	95.06
307.379	4.95
307.593	103.25
307.807	133.97
308.021	84.82
308.235	101.2
308.449	-91.31
308.663	35.67
308.877	193.36
309.091	62.29
309.305	142.16
309.519	-56.49
309.733	127.83
309.947	-54.44
310.161	54.1
310.374	37.72
310.588	101.2
310.802	-40.11
311.016	2.9
311.23	72.53
311.444	-52.39
311.658	17.24
311.872	146.26
312.085	168.79
312.299	209.75
312.513	25.43
312.727	58.2
312.941	-5.29
313.154	127.83
313.368	41.81
313.582	54.1
313.796	31.57
314.009	-1.19
314.223	133.97
314.437	2.9
314.651	0.85
314.864	41.81
315.078	-72.87
315.292	-44.2
315.505	-3.24
315.719	43.86
315.933	97.11
316.146	-60.59
316.36	19.29
316.573	103.25
316.787	105.3
317.001	68.44
317.214	-64.68
317.428	70.48
317.641	-66.73
317.855	-29.87
318.068	25.43
318.282	56.15
318.495	154.45
318.709	60.24
318.922	54.1
319.136	131.92
319.349	78.68
319.563	37.72
319.776	111.44
319.99	-87.21
320.203	152.4
320.417	19.29
320.63	140.12
320.843	179.03
321.057	125.78
321.27	56.15
321.483	131.92
321.697	80.72
321.91	4.95
322.124	13.14
322.337	54.1
322.55	19.29
322.763	72.53
322.977	-46.25
323.19	-9.39
323.403	19.29
323.617	131.92
323.83	125.78
324.043	54.1
324.256	33.62
324.469	-5.29
324.683	185.17
324.896	-23.72
325.109	41.81
325.322	-25.77
325.535	170.83
325.748	21.33
325.962	-27.82
326.175	4.95
326.388	11.09
326.601	164.69
326.814	-54.44
327.027	78.68
327.24	158.55
327.453	-68.78
327.666	93.01
327.879	131.92
328.092	109.4
328.305	21.33
328.518	4.95
328.731	-29.87
328.944	-7.34
329.157	95.06
329.37	-17.58
329.583	125.78
329.796	226.13
330.009	-64.68
330.222	39.76
330.435	113.49
330.648	99.16
330.861	39.76
331.073	90.96
331.286	138.07
331.499	37.72
331.712	-7.34
331.925	-52.39
332.138	27.48
332.35	50
332.563	52.05
332.776	160.59
332.989	-46.25
333.202	11.09
333.414	11.09
333.627	50
333.84	2.9
334.053	15.19
334.265	-17.58
334.478	11.09
334.691	-44.2
334.903	68.44
335.116	-31.91
335.329	-1.19
335.541	47.96
335.754	183.12
335.966	-89.26
336.179	-36.01
336.392	-44.2
336.604	39.76
336.817	146.26
337.029	43.86
337.242	-44.2
337.454	70.48
337.667	74.58
337.88	129.88
338.092	109.4
338.305	33.62
338.517	23.38
338.729	129.88
338.942	136.02
339.154	-79.02
339.367	-79.02
339.579	82.77
339.792	-40.11
340.004	111.44
340.217	-17.58
340.429	35.67
340.641	0.85
340.854	-38.06
341.066	-3.24
341.278	111.44
341.491	70.48
341.703	74.58
341.915	-25.77
342.128	123.73
342.34	50
342.552	-15.53
342.764	66.39
342.977	101.2
343.189	33.62
343.401	23.38
343.613	17.24
343.826	45.91
344.038	-31.91
344.25	27.48
344.462	7
344.674	68.44
344.886	23.38
345.099	115.54
345.311	9.05
345.523	-11.43
345.735	-33.96
345.947	4.95
346.159	93.01
346.371	-13.48
346.583	-31.91
346.795	60.24
347.007	86.87
347.219	95.06
347.431	-15.53
347.643	99.16
347.855	21.33
348.067	109.4
348.279	-76.97
348.491	93.01
348.703	54.1
348.915	70.48
349.127	-36.01
349.339	80.72
349.551	-33.96
349.763	144.21
349.975	33.62
350.187	136.02
350.399	60.24
350.61	123.73
350.822	39.76
351.034	52.05
351.246	37.72
351.458	-54.44
351.669	7
351.881	115.54
352.093	176.98
352.305	117.59
352.517	103.25
352.728	70.48
352.94	82.77
353.152	140.12
353.363	-50.35
353.575	47.96
353.787	121.68
353.999	166.74
354.21	129.88
354.422	-11.43
354.633	2.9
354.845	123.73
355.057	76.63
355.268	19.29
355.48	125.78
355.692	19.29
355.903	21.33
356.115	-13.48
356.326	-117.93
356.538	191.31
356.749	86.87
356.961	193.36
357.172	29.52
357.384	-7.34
357.595	230.23
357.807	41.81
358.018	31.57
358.23	82.77
358.441	174.93
358.653	136.02
358.864	-23.72
359.075	19.29
359.287	9.05
359.498	66.39
359.709	62.29
359.921	86.87
360.132	21.33
360.344	-33.96
360.555	-11.43
360.766	45.91
360.977	37.72
361.189	74.58
361.4	74.58
361.611	138.07
361.823	93.01
362.034	33.62
362.245	-38.06
362.456	15.19
362.667	105.3
362.879	17.24
363.09	86.87
363.301	21.33
363.512	80.72
363.723	-1.19
363.935	72.53
364.146	129.88
364.357	0.85
364.568	-21.67
364.779	-15.53
364.99	80.72
365.201	-72.87
365.412	162.64
365.623	-48.3
365.834	25.43
366.045	11.09
366.256	54.1
366.467	93.01
366.678	17.24
366.889	50
367.1	99.16
367.311	123.73
367.522	7
367.733	95.06
367.944	90.96
368.155	-23.72
368.366	47.96
368.577	115.54
368.788	185.17
368.999	25.43
369.209	33.62
369.42	193.36
369.631	222.03
369.842	78.68
370.053	50
370.264	74.58
370.474	-68.78
370.685	138.07
370.896	29.52
371.107	133.97
371.317	84.82
371.528	15.19
371.739	60.24
371.95	76.63
372.16	66.39
372.371	-1.19
372.582	27.48
372.792	68.44
373.003	115.54
373.214	52.05
373.424	31.57
373.635	-42.15
373.846	88.92
374.056	58.2
374.267	97.11
374.477	60.24
374.688	-17.58
374.898	119.64
375.109	52.05
375.319	99.16
375.53	111.44
375.74	68.44
375.951	68.44
376.161	125.78
376.372	105.3
376.582	15.19
376.793	64.34
377.003	-29.87
377.214	-29.87
377.424	93.01
377.635	7
377.845	2.9
378.055	181.07
378.266	-23.72
378.476	9.05
378.686	72.53
378.897	-19.63
379.107	105.3
379.317	127.83
379.528	-44.2
379.738	90.96
379.948	70.48
380.158	62.29
380.369	62.29
380.579	56.15
380.789	101.2
380.999	86.87
381.21	74.58
381.42	154.45
381.63	50
381.84	107.35
382.05	90.96
382.261	123.73
382.471	13.14
382.681	97.11
382.891	158.55
383.101	82.77
383.311	-64.68
383.521	19.29
383.731	60.24
383.941	115.54
384.151	88.92
384.361	-11.43
384.571	52.05
384.781	23.38
384.991	183.12
385.201	127.83
385.411	156.5
385.621	107.35
385.831	43.86
386.041	86.87
386.251	33.62
386.461	115.54
386.671	17.24
386.881	80.72
387.091	27.48
387.301	125.78
387.511	33.62
387.72	45.91
387.93	76.63
388.14	23.38
388.35	56.15
388.56	109.4
388.769	60.24
388.979	39.76
389.189	-72.87
389.399	23.38
389.609	72.53
389.818	185.17
390.028	54.1
390.238	90.96
390.447	7
390.657	82.77
390.867	25.43
391.076	-107.69
391.286	82.77
391.496	9.05
391.705	66.39
391.915	170.83
392.125	50
392.334	13.14
392.544	146.26
392.753	-11.43
392.963	54.1
393.172	-11.43
393.382	19.29
393.591	97.11
393.801	-64.68
394.01	140.12
394.22	127.83
394.429	-58.54
394.639	33.62
394.848	76.63
395.058	88.92
395.267	68.44
395.477	68.44
395.686	129.88
395.895	191.31
396.105	211.79
396.314	156.5
396.524	23.38
396.733	-9.39
396.942	121.68
397.152	60.24
397.361	117.59
397.57	-5.29
397.78	64.34
397.989	35.67
398.198	242.51
398.407	64.34
398.617	60.24
398.826	-1.19
399.035	-15.53
399.244	105.3
399.453	-1.19
399.663	9.05
399.872	99.16
400.081	-23.72
400.29	140.12
400.499	4.95
400.708	99.16
400.917	7
401.127	66.39
401.336	-23.72
401.545	207.7
401.754	62.29
401.963	140.12
402.172	84.82
402.381	-64.68
402.59	144.21
402.799	50
403.008	119.64
403.217	109.4
403.426	113.49
403.635	37.72
403.844	68.44
404.053	31.57
404.262	-66.73
404.471	211.79
404.68	127.83
404.888	17.24
405.097	74.58
405.306	27.48
405.515	115.54
405.724	129.88
405.933	144.21
406.142	72.53
406.35	123.73
406.559	19.29
406.768	58.2
406.977	113.49
407.185	11.09
407.394	0.85
407.603	-9.39
407.812	90.96
408.02	142.16
408.229	21.33
408.438	78.68
408.646	11.09
408.855	70.48
409.064	41.81
409.272	88.92
409.481	66.39
409.69	-9.39
409.898	-19.63
410.107	119.64
410.315	47.96
410.524	35.67
410.733	25.43
410.941	62.29
411.15	119.64
411.358	101.2
411.567	197.46
411.775	17.24
411.984	82.77
412.192	133.97
412.401	33.62
412.609	183.12
412.818	125.78
413.026	111.44
413.234	50
413.443	33.62
413.651	64.34
413.86	23.38
414.068	138.07
414.276	219.99
414.485	25.43
414.693	207.7
414.901	150.36
415.11	74.58
415.318	66.39
415.526	11.09
415.734	72.53
415.943	11.09
416.151	129.88
416.359	-9.39
416.567	64.34
416.776	142.16
416.984	133.97
417.192	154.45
417.4	-19.63
417.608	43.86
417.817	-33.96
418.025	154.45
418.233	183.12
418.441	-81.07
418.649	23.38
418.857	84.82
419.065	176.98
419.273	31.57
419.481	103.25
419.689	78.68
419.897	-21.67
420.105	-13.48
420.313	78.68
420.521	138.07
420.729	107.35
420.937	68.44
421.145	17.24
421.353	111.44
421.561	152.4
421.769	84.82
421.977	31.57
422.185	39.76
422.393	86.87
422.601	156.5
422.809	127.83
423.017	33.62
423.224	164.69
423.432	162.64
423.64	64.34
423.848	148.31
424.056	9.05
424.263	97.11
424.471	111.44
424.679	148.31
424.887	-3.24
425.094	138.07
425.302	66.39
425.51	99.16
425.718	88.92
425.925	68.44
426.133	101.2
426.341	199.51
426.548	2.9
426.756	68.44
426.964	64.34
427.171	29.52
427.379	179.03
427.586	125.78
427.794	168.79
428.001	187.22
428.209	105.3
428.417	156.5
428.624	154.45
428.832	107.35
429.039	74.58
429.247	127.83
429.454	197.46
429.662	174.93
429.869	156.5
430.076	117.59
430.284	146.26
430.491	172.88
430.699	172.88
430.906	234.32
431.114	99.16
431.321	101.2
431.528	107.35
431.736	103.25
431.943	181.07
432.15	197.46
432.358	230.23
432.565	234.32
432.772	62.29
432.979	252.75
433.187	187.22
433.394	260.95
433.601	146.26
433.808	269.14
434.016	312.14
434.223	234.32
434.43	336.72
434.637	310.1
434.844	265.04
435.052	232.27
435.259	336.72
435.466	289.62
435.673	312.14
435.88	392.02
436.087	371.54
436.294	398.16
436.501	377.68
436.708	283.47
436.915	410.45
437.122	394.06
437.329	340.82
437.537	396.11
437.743	459.6
437.95	537.42
438.157	377.68
438.364	435.02
438.571	478.03
438.778	510.8
438.985	488.27
439.192	535.37
439.399	551.76
439.606	535.37
439.813	615.24
440.02	734.03
440.227	785.23
440.433	572.24
440.64	672.59
440.847	588.62
441.054	705.35
441.261	789.32
441.467	670.54
441.674	688.97
441.881	928.58
442.088	766.79
442.294	764.75
442.501	891.72
442.708	977.73
442.914	926.54
443.121	987.97
443.328	1076.04
443.534	996.17
443.741	1092.42
443.948	1125.19
444.154	1096.52
444.361	1246.02
444.568	1229.63
444.774	1227.59
444.981	1180.48
445.187	1405.76
445.394	1409.86
445.6	1360.7
445.807	1624.89
446.013	1481.53
446.22	1532.73
446.426	1694.52
446.633	1739.58
446.839	1966.9
447.046	1760.06
447.252	1911.61
447.459	1899.32
447.665	1958.71
447.871	2165.56
448.078	2302.77
448.284	2376.5
448.491	2360.11
448.697	2437.94
448.903	2624.3
449.11	2583.34
449.316	2667.31
449.522	2859.82
449.728	2843.43
449.935	2919.21
450.141	2990.89
450.347	3357.47
450.553	3160.87
450.76	3324.71
450.966	3549.98
451.172	3519.26
451.378	3693.34
451.584	3746.59
451.791	4123.41
451.997	4188.95
452.203	4344.6
452.409	4592.4
452.615	4809.48
452.821	4500.24
453.027	4692.75
453.233	5042.95
453.44	5012.23
453.646	5286.66
453.852	5507.84
454.058	5778.17
454.264	5884.67
454.47	6277.88
454.676	6382.32
454.882	6976.23
455.088	6554.35
455.294	6816.49
455.5	7525.09
455.705	7983.84
455.911	7969.5
456.117	7998.17
456.323	8348.37
456.529	8266.46
456.735	9011.92
456.941	9280.2
457.147	9792.19
457.352	9872.06
457.558	10293.94
457.764	11098.8
457.97	11160.24
458.176	11676.32
458.381	12288.67
458.587	12407.45
458.793	13036.17
458.999	13040.27
459.204	14725.75
459.41	15204.97
459.616	14791.28
459.821	15680.1
460.027	16661.08
460.233	17175.12
460.438	17332.81
460.644	18518.59
460.85	18606.65
461.055	19231.28
461.261	20253.22
461.466	19716.65
461.672	20017.7
461.878	22528.51
462.083	22512.13
462.289	22950.39
462.494	23577.07
462.7	23720.43
462.905	24173.03
463.111	26071.5
463.316	27224.5
463.522	27877.8
463.727	28651.94
463.932	29862.29
464.138	30806.4
464.343	32151.91
464.549	32211.31
464.754	34611.53
464.959	35563.83
465.165	36075.82
465.37	35674.42
465.575	36086.06
465.781	38064.4
465.986	39512.31
466.191	38574.34
466.397	39207.17
466.602	38232.33
466.807	40278.25
467.012	40888.55
467.218	41840.85
467.423	41922.77
467.628	42866.89
467.833	44988.58
468.038	44144.82
468.244	43419.84
468.449	46076.05
468.654	44722.35
468.859	44615.85
469.064	44945.58
469.269	43794.62
469.474	43952.31
469.679	45627.55
469.885	43970.74
470.09	44859.56
470.295	44734.63
470.5	43897.02
470.705	43874.49
470.91	42664.14
471.115	42547.4
471.32	43126.98
471.525	43104.45
471.73	42004.69
471.935	41568.48
472.139	40130.8
472.344	40136.94
472.549	40222.96
472.754	39313.66
472.959	38412.56
473.164	37181.73
473.369	36583.72
473.574	37607.7
473.778	36722.98
473.983	35936.56
474.188	35717.43
474.393	33884.5
474.598	33585.49
474.802	33108.32
475.007	32661.86
475.212	32385.38
475.417	31056.25
475.621	30781.82
475.826	30388.61
476.031	29806.99
476.235	29180.31
476.44	28987.8
476.645	28330.41
476.849	28295.59
477.054	27703.73
477.259	27193.78
477.463	26929.59
477.668	26001.86
477.872	26311.11
478.077	25500.11
478.282	24850.91
478.486	24672.73
478.691	24502.75
478.895	24189.41
479.1	24068.58
479.304	23683.56
479.509	23280.11
479.713	23478.77
479.918	22968.82
480.122	22434.3
480.326	22299.14
480.531	22553.09
480.735	22149.64
480.94	21750.28
481.144	22675.96
481.348	21182.99
481.553	21469.71
481.757	20929.05
481.961	21017.11
482.166	21326.35
482.37	21123.6
482.574	20318.75
482.778	20468.25
482.983	20947.48
483.187	20191.78
483.391	20302.37
483.595	19741.22
483.8	19554.86
484.004	19542.57
484.208	19405.36
484.412	19167.79
484.616	18938.42
484.821	18866.74
485.025	18166.34
485.229	18635.32
485.433	18188.86
485.637	18115.14
485.841	17623.62
486.045	17357.39
486.249	17418.83
486.453	16704.09
486.657	16917.08
486.861	16489.05
487.065	16194.14
487.269	16087.65
487.473	15401.58
487.677	15895.14
487.881	15506.02
488.085	15168.11
488.289	15213.17
488.493	14707.32
488.697	14557.82
488.901	14209.66
489.105	13984.38
489.309	13734.53
489.512	13447.82
489.716	13515.4
489.92	12771.99
490.124	12753.55
490.328	12851.86
490.531	12249.75
490.735	12227.23
490.939	11956.89
491.143	11723.43
491.346	11559.59
491.55	11387.56
491.754	11199.15
491.958	11086.51
492.161	10699.44
492.365	10691.25
492.569	10375.86
492.772	10371.77
492.976	10355.38
493.18	10230.46
493.383	10166.97
493.587	9976.51
493.79	10068.67
493.994	9650.88
494.197	9485
494.401	9556.68
494.605	9059.02
494.808	9239.24
495.012	9468.61
495.215	9302.73
495.419	9210.57
495.622	9009.87
495.825	8979.15
496.029	8954.57
496.232	8891.09
496.436	8723.15
496.639	9126.6
496.843	8755.92
497.046	8868.56
497.249	9003.72
497.453	8745.68
497.656	8704.72
497.859	8762.06
498.063	8899.28
498.266	8940.24
498.469	8803.02
498.673	9224.9
498.876	8850.13
499.079	9044.68
499.282	8993.48
499.485	9306.82
499.689	9269.96
499.892	9302.73
500.095	9312.97
500.298	9282.25
500.501	9173.71
500.705	9366.21
500.908	9648.83
501.111	9401.03
501.314	9636.55
501.517	9829.06
501.72	9857.73
501.923	9833.15
502.126	10117.82
502.329	10285.75
502.532	10382.01
502.735	10410.68
502.938	10584.76
503.141	10787.5
503.344	10613.43
503.547	11176.62
503.75	11119.28
503.953	11197.1
504.156	11338.41
504.359	11489.96
504.562	11571.88
504.765	11748
504.968	11917.98
505.17	12237.47
505.373	12415.64
505.576	12767.89
505.779	12847.76
505.982	12898.96
506.185	13300.36
506.387	13245.07
506.59	13707.91
506.793	13953.66
506.996	13943.42
507.198	14221.95
507.401	14647.93
507.604	14955.12
507.807	15356.52
508.009	15536.74
508.212	15663.72
508.415	16063.07
508.617	16296.54
508.82	16607.83
509.022	16679.51
509.225	17449.55
509.428	17766.98
509.63	18266.69
509.833	18606.65
510.035	19225.14
510.238	19354.16
510.44	19784.23
510.643	20304.42
510.845	20433.44
511.048	20873.75
511.25	21252.63
511.453	21936.65
511.655	22968.82
511.858	23007.73
512.06	23259.63
512.262	23585.26
512.465	24179.17
512.667	25029.08
512.87	25668.05
513.072	25803.21
513.274	26563.01
513.477	27077.05
513.679	27924.91
513.881	28176.81
514.084	28942.75
514.286	29421.97
514.488	30294.41
514.69	31340.92
514.893	31842.67
515.095	32264.55
515.297	32883.04
515.499	33220.95
515.701	34136.4
515.904	34711.88
516.106	35727.67
516.308	36350.25
516.51	37118.24
516.712	37345.56
516.914	38195.47
517.116	39420.16
517.318	39663.86
517.52	40659.18
517.722	40722.66
517.925	41885.91
518.127	42670.28
518.329	43434.17
518.531	43626.68
518.733	44933.29
518.935	45389.98
519.136	46223.51
519.338	46934.15
519.54	47548.54
519.742	48101.5
519.944	48257.14
520.146	49346.66
520.348	50124.89
520.55	50047.07
520.752	50952.27
520.954	51912.77
521.155	51738.69
521.357	52971.57
521.559	53450.79
521.761	54431.77
521.963	54401.05
522.164	54726.67
522.366	55171.08
522.568	56004.61
522.77	56268.79
522.971	57161.71
523.173	56602.61
523.375	57882.59
523.576	57522.15
523.778	57890.79
523.98	58099.68
524.181	58271.71
524.383	58507.22
524.584	59060.18
524.786	59000.79
524.988	58503.13
525.189	59449.29
525.391	59248.59
525.592	59377.61
525.794	59566.02
525.995	59181.01
526.197	58898.39
526.398	59086.8
526.6	59232.21
526.801	59043.79
527.003	59021.26
527.204	58449.88
527.406	58888.15
527.607	58623.96
527.808	58331.1
528.01	56956.91
528.211	57087.98
528.412	57530.34
528.614	57391.08
528.815	57120.75
529.016	56739.83
529.218	55707.65
529.419	55834.63
529.62	54583.32
529.822	54671.38
530.023	53458.98
530.224	53755.94
530.425	52897.84
530.626	51902.53
530.828	51451.97
531.029	52600.88
531.23	50620.5
531.431	50128.98
531.632	50303.06
531.833	49356.9
532.035	48760.94
532.236	48136.31
532.437	47710.33
532.638	46968.97
532.839	46504.08
533.04	46121.11
533.241	45369.51
533.442	45537.44
533.643	44193.97
533.844	43978.93
534.045	42971.33
534.246	42272.98
534.447	42146
534.648	41777.37
534.849	41017.57
535.05	40282.35
535.251	40071.41
535.451	39330.05
535.652	39022.85
535.853	38043.92
536.054	38473.99
536.255	37431.58
536.456	36303.15
536.657	36563.24
536.857	35518.78
537.058	35584.31
537.259	35219.77
537.46	34113.87
537.66	33872.21
537.861	34158.92
538.062	32856.42
538.263	32954.72
538.463	32213.35
538.664	31830.38
538.865	31580.53
539.065	31314.3
539.266	30468.48
539.466	30800.26
539.667	29714.83
539.868	29823.37
540.068	29534.61
540.269	29039
540.469	28752.29
540.67	28207.53
540.87	28115.37
541.071	27470.26
541.271	27398.58
541.472	26984.89
541.672	26743.23
541.873	26282.44
542.073	25878.99
542.274	25991.62
542.474	25350.61
542.675	25143.77
542.875	25211.35
543.075	24322.53
543.276	24084.97
543.476	24216.04
543.676	23753.19
543.877	23597.55
544.077	23280.11
544.277	23214.58
544.478	22620.67
544.678	22456.83
544.878	22757.88
545.078	22102.53
545.279	22010.37
545.479	21393.93
545.679	21670.41
545.879	21047.83
546.079	21015.06
546.28	20550.17
546.48	20265.5
546.68	20359.71
546.88	19868.2
547.08	19866.15
547.28	19421.74
547.48	19321.39
547.68	18827.83
547.88	18764.34
548.081	18678.33
548.281	18403.9
548.481	17908.29
548.681	17893.96
548.881	17648.2
549.081	17697.35
549.28	16933.46
549.48	16972.37
549.68	16765.53
549.88	16687.7
550.08	16046.69
550.28	16007.78
550.48	16052.83
550.68	15745.64
550.88	15473.26
551.08	15219.31
551.279	15004.27
551.479	14815.86
551.679	14654.07
551.879	14258.81
552.079	14191.23
552.278	13836.93
552.478	13744.77
552.678	13671.04
552.878	13494.92
553.077	13220.49
553.277	12755.6
553.477	12966.54
553.676	12591.77
553.876	12309.15
554.076	12034.72
554.275	12014.24
554.475	11621.03
554.674	11752.1
554.874	11438.76
555.074	11162.28
555.273	11039.4
555.473	10916.53
555.672	10795.7
555.872	10549.94
556.071	10441.4
556.271	10134.2
556.47	10083
556.67	9663.17
556.869	9695.94
557.068	9667.27
557.268	9349.83
557.467	9339.59
557.667	9233.1
557.866	8925.9
558.065	8788.69
558.265	8684.24
558.464	8477.4
558.663	8317.65
558.863	8276.7
559.062	8205.02
559.261	8139.48
559.461	8022.75
559.66	7760.61
559.859	7617.25
560.058	7389.92
560.258	7318.25
560.457	7414.5
560.656	7318.25
560.855	6877.93
561.054	6980.33
561.253	6894.32
561.453	6710
561.652	6474.48
561.851	6626.03
562.05	6365.94
562.249	6290.17
562.448	6355.7
562.647	6146.81
562.846	5950.2
563.045	6189.81
563.244	5806.84
563.443	5755.65
563.642	5741.31
563.841	5733.12
564.04	5513.99
564.239	5489.41
564.438	5387.01
564.637	5323.52
564.836	5214.98
565.035	5202.69
565.234	5059.34
565.432	5055.24
565.631	4858.64
565.83	4938.51
566.029	4643.6
566.228	4791.05
566.427	4733.71
566.625	4414.23
566.824	4438.8
567.023	4580.11
567.222	4250.39
567.42	4287.25
567.619	4395.79
567.818	4199.19
568.016	4334.36
568.215	3980.06
568.414	4219.67
568.612	3975.96
568.811	3922.71
569.01	3994.39
569.208	3881.75
569.407	3881.75
569.605	3902.23
569.804	3683.1
570.002	3736.35
570.201	3580.7
570.4	3666.72
570.598	3576.61
570.797	3351.33
570.995	3353.38
571.193	3312.42
571.392	3318.56
571.59	3013.42
571.789	3318.56
571.987	3246.88
572.186	3257.12
572.384	3033.9
572.582	2982.7
572.781	3111.72
572.979	2874.15
573.177	2986.79
573.376	2720.56
573.574	2806.57
573.772	2700.08
573.971	2724.65
574.169	2583.34
574.367	2603.82
574.565	2614.06
574.763	2507.57
574.962	2458.42
575.16	2333.49
575.358	2507.57
575.556	2421.55
575.754	2339.63
575.952	2339.63
576.151	2388.78
576.349	2306.87
576.547	2130.74
576.745	2229.04
576.943	2181.94
577.141	2108.21
577.339	1993.53
577.537	2014.01
577.735	2081.59
577.933	2018.1
578.131	1917.75
578.329	1999.67
578.527	1819.45
578.725	1835.83
578.923	1710.91
579.121	1846.07
579.319	1727.29
579.516	1704.76
579.714	1899.32
579.912	1700.67
580.11	1553.21
580.308	1663.8
580.506	1516.35
580.704	1452.86
580.901	1549.12
581.099	1698.62
581.297	1461.06
581.495	1491.77
581.692	1428.29
581.89	1604.41
582.088	1446.72
582.285	1416
582.483	1385.28
582.681	1420.1
582.878	1303.36
583.076	1254.21
583.274	1381.18
583.471	1495.87
583.669	1262.4
583.866	1217.35
584.064	1194.82
584.262	1164.1
584.459	1221.44
584.657	1176.39
584.854	1233.73
585.052	1305.41
585.249	1188.68
585.447	1131.33
585.644	1061.7
585.841	1207.11
586.039	1160
586.236	1139.52
586.434	1041.22
586.631	987.97
586.828	1033.03
587.026	996.17
587.223	912.2
587.42	979.78
587.618	965.45
587.815	1098.56
588.012	936.78
588.21	889.67
588.407	1016.65
588.604	967.49
588.801	944.97
588.999	996.17
589.196	942.92
589.393	836.42
589.59	883.53
589.787	852.81
589.984	879.43
590.182	858.95
590.379	781.13
590.576	865.1
590.773	799.56
590.97	811.85
591.167	908.1
591.364	791.37
591.561	869.19
591.758	936.78
591.955	867.14
592.152	785.23
592.349	838.47
592.546	787.27
592.743	820.04
592.94	883.53
593.137	836.42
593.334	817.99
593.531	858.95
593.727	879.43
593.924	856.9
594.121	844.62
594.318	777.03
594.515	887.62
594.712	977.73
594.908	928.58
595.105	869.19
595.302	844.62
595.499	942.92
595.696	961.35
595.892	785.23
596.089	1008.45
596.286	1020.74
596.482	1063.75
596.679	996.17
596.876	969.54
597.072	1098.56
597.269	1024.84
597.466	1102.66
597.662	998.21
597.859	1086.28
598.055	1133.38
598.252	1264.45
598.448	1203.01
598.645	1293.12
598.841	1260.35
599.038	1551.17
599.234	1538.88
599.431	1420.1
599.627	1516.35
599.824	1602.36
600.02	1602.36
600.217	1696.57
600.413	1731.39
600.609	1893.18
600.806	2050.87
601.002	2054.97
601.198	1917.75
601.395	2222.9
601.591	2177.84
601.787	2358.07
601.984	2405.17
602.18	2442.03
602.376	2544.43
602.572	2554.67
602.769	2726.7
602.965	2767.66
603.161	2781.99
603.357	3031.85
603.553	3228.45
603.75	3150.63
603.946	3435.3
604.142	3412.77
604.338	3697.44
604.534	3676.96
604.73	3881.75
604.926	3826.46
605.122	4021.02
605.318	4051.74
605.514	4332.31
605.71	4453.14
605.906	4592.4
606.102	4627.21
606.298	4823.82
606.494	4975.37
606.69	5118.73
606.886	5133.06
607.082	5268.23
607.278	5526.27
607.474	5817.08
607.67	5837.56
607.866	5743.36
608.062	6249.21
608.257	6365.94
608.453	6517.49
608.649	6650.61
608.845	6931.18
609.041	6937.32
609.236	7404.26
609.432	7609.06
609.628	7570.15
609.824	7912.16
610.019	8071.9
610.215	8372.95
610.411	8741.58
610.606	8872.65
610.802	8952.52
610.998	9237.19
611.193	9644.74
611.389	9519.81
611.584	9964.22
611.78	9958.08
611.976	10586.8
612.171	10830.51
612.367	11281.07
612.562	11332.26
612.758	11604.64
612.953	11838.11
613.149	12501.65
613.344	12534.42
613.539	12962.45
613.735	13171.34
613.93	13914.75
614.126	13824.64
614.321	14492.28
614.517	14510.71
614.712	15016.56
614.907	15467.11
615.103	15907.43
615.298	16167.52
615.493	16681.56
615.688	16810.58
615.884	17977.92
616.079	17728.07
616.274	18291.26
616.47	18663.99
616.665	18969.14
616.86	19780.14
617.055	20144.67
617.25	20486.68
617.445	21375.5
617.641	21676.55
617.836	22503.93
618.031	22518.27
618.226	23190
618.421	23904.74
618.616	25090.52
618.811	24838.62
619.006	25668.05
619.201	26067.4
619.396	26583.49
619.591	26925.5
619.786	27888.04
619.981	28496.29
620.176	29272.47
620.371	29417.88
620.566	30396.81
620.761	30671.23
620.956	31517.04
621.151	31926.64
621.346	32524.65
621.541	32764.26
621.735	33939.79
621.93	34271.56
622.125	35334.46
622.32	35410.23
622.515	36274.48
622.709	36901.15
622.904	37810.45
623.099	38529.29
623.294	39074.05
623.488	39166.21
623.683	40124.66
623.878	40167.66
624.072	41429.21
624.267	41947.35
624.462	42957
624.656	42920.13
624.851	44226.74
625.046	44490.93
625.24	45017.25
625.435	45234.34
625.629	46284.95
625.824	46794.89
626.018	47532.16
626.213	47249.54
626.407	48502.9
626.602	48523.38
626.796	49602.66
626.991	50028.63
627.185	50372.69
627.38	50092.12
627.574	50575.44
627.768	50675.79
627.963	50823.25
628.157	51599.43
628.352	51681.34
628.546	51146.82
628.74	52049.98
628.935	51347.53
629.129	51816.51
629.323	51017.8
629.517	51304.52
629.712	51107.91
629.906	50903.12
630.1	49809.5
630.294	49961.05
630.489	49217.64
630.683	49113.19
630.877	47638.65
631.071	46860.43
631.265	47184.01
631.459	45340.83
631.653	44581.04
631.848	43387.07
632.042	42500.3
632.236	41855.19
632.43	40339.69
632.624	39561.47
632.818	38510.86
633.012	37083.42
633.206	36004.14
633.4	35215.68
633.594	33663.32
633.788	32680.29
633.982	31539.57
634.176	30507.4
634.369	29430.16
634.563	28465.57
634.757	27163.06
634.951	26675.65
635.145	25549.26
635.339	24472.03
635.533	23435.76
635.726	22342.14
635.92	21246.48
636.114	20777.5
636.308	19810.86
636.501	18952.76
636.695	18281.02
636.889	17676.87
637.083	16743
637.276	16050.78
637.47	15311.47
637.664	14908.02
637.857	14299.77
638.051	13857.41
638.244	13163.15
638.438	12708.5
638.632	12255.9
638.825	11387.56
639.019	11195.05
639.212	10660.53
639.406	10470.07
639.599	10062.52
639.793	9532.1
639.986	9157.32
640.18	8788.69
640.373	8393.43
640.567	8096.47
640.76	7854.81
640.954	7623.39
641.147	7078.63
641.34	6724.33
641.534	6666.99
641.727	6497.01
641.92	6228.73
642.114	6007.55
642.307	5706.49
642.5	5548.8
642.694	5131.02
642.887	5079.82
643.08	4825.87
643.273	4809.48
643.467	4502.29
643.66	4432.66
643.853	4152.09
644.046	4107.03
644.239	3906.33
644.432	3783.45
644.626	3427.11
644.819	3363.62
645.012	3205.92
645.205	3279.65
645.398	3148.58
645.591	3021.61
645.784	2734.89
645.977	2747.18
646.17	2708.27
646.363	2595.63
646.556	2482.99
646.749	2403.12
646.942	2317.11
647.135	2202.42
647.328	2118.45
647.521	1983.29
647.714	1993.53
647.907	1893.18
648.099	1725.24
648.292	1862.46
648.485	1688.38
648.678	1598.27
648.871	1583.93
649.064	1487.68
649.256	1436.48
649.449	1276.74
649.642	1256.26
649.835	1246.02
650.027	1233.73
650.22	1295.17
650.413	1205.06
650.605	1213.25
650.798	1059.65
650.991	1065.8
651.183	1080.13
651.376	1067.85
651.568	983.88
651.761	858.95
651.954	891.72
652.146	912.2
652.339	867.14
652.531	811.85
652.724	772.94
652.916	717.64
653.109	643.92
653.301	783.18
653.494	723.79
653.686	715.59
653.879	744.27
654.071	648.01
654.263	555.85
654.456	662.35
654.648	686.92
654.84	680.78
655.033	592.72
655.225	643.92
655.417	351.06
655.61	680.78
655.802	551.76
655.994	611.15
656.186	420.69
656.379	572.24
656.571	316.24
656.763	426.83
656.955	490.32
657.148	428.88
657.34	422.73
657.532	418.64
657.724	310.1
657.916	402.26
658.108	504.65
658.3	457.55
658.492	394.06
658.684	312.14
658.876	400.21
659.068	303.95
659.26	332.62
659.452	269.14
659.644	295.76
659.836	385.87
660.028	277.33
660.22	287.57
660.412	213.84
660.604	310.1
660.796	240.47
660.988	267.09
661.18	291.66
661.372	340.82
661.563	281.43
661.755	244.56
661.947	142.16
662.139	213.84
662.331	260.95
662.522	219.99
662.714	113.49
662.906	142.16
663.097	258.9
663.289	211.79
663.481	199.51
663.673	152.4
663.864	219.99
664.056	273.23
664.247	219.99
664.439	240.47
664.631	211.79
664.822	281.43
665.014	168.79
665.205	84.82
665.397	70.48
665.588	217.94
665.78	207.7
665.971	217.94
666.163	168.79
666.354	158.55
666.546	138.07
666.737	125.78
666.929	174.93
667.12	187.22
667.311	189.27
667.503	144.21
667.694	166.74
667.885	123.73
668.077	240.47
668.268	45.91
668.459	228.18
668.651	129.88
668.842	170.83
669.033	99.16
669.224	52.05
669.416	297.81
669.607	121.68
669.798	97.11
669.989	232.27
670.18	66.39
670.371	205.65
670.563	78.68
670.754	191.31
670.945	170.83
671.136	154.45
671.327	152.4
671.518	316.24
671.709	306
671.9	174.93
672.091	297.81
672.282	127.83
672.473	142.16
672.664	101.2
672.855	41.81
673.046	193.36
673.237	197.46
673.428	158.55
673.619	179.03
673.809	125.78
674	195.41
674.191	222.03
674.382	156.5
674.573	119.64
674.764	148.31
674.954	215.89
675.145	66.39
675.336	31.57
675.527	66.39
675.717	88.92
675.908	-5.29
676.099	119.64
676.289	207.7
676.48	84.82
676.671	164.69
676.861	97.11
677.052	129.88
677.243	115.54
677.433	97.11
677.624	133.97
677.814	185.17
678.005	174.93
678.195	271.19
678.386	129.88
678.576	166.74
678.767	68.44
678.957	160.59
679.148	222.03
679.338	285.52
679.529	185.17
679.719	99.16
679.909	160.59
680.1	189.27
680.29	138.07
680.481	107.35
680.671	228.18
680.861	207.7
681.052	144.21
681.242	117.59
681.432	273.23
681.622	217.94
681.813	133.97
682.003	119.64
682.193	191.31
682.383	222.03
682.573	172.88
682.764	179.03
682.954	215.89
683.144	283.47
683.334	93.01
683.524	205.65
683.714	226.13
683.904	183.12
684.094	183.12
684.284	244.56
684.474	332.62
684.664	295.76
684.854	142.16
685.044	140.12
685.234	148.31
685.424	222.03
685.614	172.88
685.804	328.53
685.994	277.33
686.184	164.69
686.374	209.75
686.564	252.75
686.753	111.44
686.943	99.16
687.133	115.54
687.323	86.87
687.513	189.27
687.702	222.03
687.892	207.7
688.082	197.46
688.272	238.42
688.461	199.51
688.651	248.66
688.841	201.55
689.03	129.88
689.22	199.51
689.41	144.21
689.599	140.12
689.789	125.78
689.979	269.14
690.168	131.92
690.358	217.94
690.547	160.59
690.737	164.69
690.926	226.13
691.116	252.75
691.305	297.81
691.495	238.42
691.684	174.93
691.874	119.64
692.063	230.23
692.252	154.45
692.442	228.18
692.631	144.21
692.82	78.68
693.01	217.94
693.199	154.45
693.388	252.75
693.578	197.46
693.767	183.12
693.956	262.99
694.146	170.83
694.335	146.26
694.524	148.31
694.713	205.65
694.902	185.17
695.092	107.35
695.281	187.22
695.47	136.02
695.659	154.45
695.848	115.54
696.037	213.84
696.226	301.9
696.415	234.32
696.604	267.09
696.793	191.31
696.982	144.21
697.171	369.49
697.36	166.74
697.549	125.78
697.738	39.76
697.927	154.45
698.116	113.49
698.305	236.37
698.494	68.44
698.683	123.73
698.872	369.49
699.061	138.07
699.25	119.64
699.438	131.92
699.627	146.26
699.816	297.81
700.005	154.45
700.193	127.83
700.382	205.65
700.571	217.94
700.76	236.37
700.948	217.94
701.137	217.94
701.326	230.23
701.514	109.4
701.703	146.26
701.892	267.09
702.08	340.82
702.269	144.21
702.457	29.52
702.646	236.37
702.834	138.07
703.023	295.76
703.212	260.95
703.4	131.92
703.589	62.29
703.777	211.79
703.965	99.16
704.154	166.74
704.342	64.34
704.531	160.59
704.719	179.03
704.907	215.89
705.096	103.25
705.284	142.16
705.472	195.41
705.661	152.4
705.849	250.71
706.037	187.22
706.226	197.46
706.414	142.16
706.602	138.07
706.79	287.57
706.979	176.98
707.167	224.08
707.355	41.81
707.543	236.37
707.731	197.46
707.919	207.7
708.107	150.36
708.296	97.11
708.484	109.4
708.672	156.5
708.86	209.75
709.048	127.83
709.236	66.39
709.424	103.25
709.612	222.03
709.8	35.67
709.988	115.54
710.176	289.62
710.364	232.27
710.551	156.5
710.739	138.07
710.927	195.41
711.115	203.6
711.303	154.45
711.491	308.05
711.679	144.21
711.866	197.46
712.054	172.88
712.242	254.8
712.43	254.8
712.617	164.69
712.805	199.51
712.993	127.83
713.181	70.48
713.368	244.56
713.556	183.12
713.744	97.11
713.931	349.01
714.119	170.83
714.306	142.16
714.494	88.92
714.682	150.36
714.869	138.07
715.057	103.25
715.244	90.96
715.432	158.55
715.619	84.82
715.807	140.12
715.994	160.59
716.182	234.32
716.369	248.66
716.556	224.08
716.744	154.45
716.931	21.33
717.119	158.55
717.306	125.78
717.493	170.83
717.681	107.35
717.868	125.78
718.055	260.95
718.242	176.98
718.43	176.98
718.617	242.51
718.804	133.97
718.991	248.66
719.179	250.71
719.366	211.79
719.553	238.42
719.74	179.03
719.927	213.84
720.114	160.59
720.301	125.78
720.488	125.78
720.676	119.64
720.863	193.36
721.05	310.1
721.237	158.55
721.424	262.99
721.611	144.21
721.798	84.82
721.985	95.06
722.172	228.18
722.358	113.49
722.545	254.8
722.732	224.08
722.919	303.95
723.106	181.07
723.293	219.99
723.48	205.65
723.667	117.59
723.853	299.86
724.04	291.66
724.227	222.03
724.414	140.12
724.6	179.03
724.787	332.62
724.974	303.95
725.161	234.32
725.347	133.97
725.534	193.36
725.72	224.08
725.907	283.47
726.094	230.23
726.28	109.4
726.467	244.56
726.653	121.68
726.84	250.71
727.027	324.43
727.213	275.28
727.4	281.43
727.586	219.99
727.773	136.02
727.959	117.59
728.145	197.46
728.332	260.95
728.518	158.55
728.705	293.71
728.891	289.62
729.077	146.26
729.264	140.12
729.45	187.22
729.636	332.62
729.823	209.75
730.009	271.19
730.195	246.61
730.382	222.03
730.568	219.99
730.754	236.37
730.94	238.42
731.126	191.31
731.313	211.79
731.499	209.75
731.685	199.51
731.871	260.95
732.057	172.88
732.243	164.69
732.429	193.36
732.615	316.24
732.801	318.29
732.987	213.84
733.173	262.99
733.359	252.75
733.545	125.78
733.731	256.85
733.917	320.34
734.103	275.28
734.289	326.48
734.475	140.12
734.661	291.66
734.847	346.96
735.033	201.55
735.219	303.95
735.404	211.79
735.59	193.36
735.776	154.45
735.962	244.56
736.148	203.6
736.333	351.06
736.519	217.94
736.705	168.79
736.89	203.6
737.076	291.66
737.262	119.64
737.447	148.31
737.633	176.98
737.819	262.99
738.004	236.37
738.19	277.33
738.375	203.6
738.561	187.22
738.747	256.85
738.932	164.69
739.118	398.16
739.303	205.65
739.489	271.19
739.674	162.64
739.859	136.02
740.045	318.29
740.23	267.09
740.416	66.39
740.601	213.84
740.786	224.08
740.972	168.79
741.157	166.74
741.342	195.41
741.528	166.74
741.713	308.05
741.898	265.04
742.084	246.61
742.269	217.94
742.454	176.98
742.639	285.52
742.824	254.8
743.01	332.62
743.195	303.95
743.38	236.37
743.565	211.79
743.75	164.69
743.935	287.57
744.12	295.76
744.305	140.12
744.49	213.84
744.675	226.13
744.86	187.22
745.045	166.74
745.23	170.83
745.415	197.46
745.6	256.85
745.785	183.12
745.97	289.62
746.155	183.12
746.34	277.33
746.525	156.5
746.71	279.38
746.895	201.55
747.079	230.23
747.264	115.54
747.449	299.86
747.634	295.76
747.819	211.79
748.003	189.27
748.188	84.82
748.373	248.66
748.557	234.32
748.742	189.27
748.927	238.42
749.111	203.6
749.296	176.98
749.481	187.22
749.665	176.98
749.85	68.44
750.034	211.79
750.219	176.98
750.404	154.45
750.588	170.83
750.773	224.08
750.957	230.23
751.141	201.55
751.326	185.17
751.51	97.11
751.695	158.55
751.879	170.83
752.064	295.76
752.248	179.03
752.432	267.09
752.617	162.64
752.801	217.94
752.985	162.64
753.17	236.37
753.354	189.27
753.538	207.7
753.722	33.62
753.907	138.07
754.091	176.98
754.275	219.99
754.459	29.52
754.643	101.2
754.828	191.31
755.012	174.93
755.196	54.1
755.38	101.2
755.564	109.4
755.748	148.31
755.932	211.79
756.116	262.99
756.3	105.3
756.484	140.12
756.668	187.22
756.852	-17.58
757.036	95.06
757.22	136.02
757.404	13.14
757.588	80.72
757.772	140.12
757.956	88.92
758.14	181.07
758.323	66.39
758.507	205.65
758.691	156.5
758.875	213.84
759.059	203.6
759.242	74.58
759.426	150.36
759.61	246.61
759.794	76.63
759.977	99.16
760.161	285.52
760.345	209.75
760.528	170.83
760.712	140.12
760.895	-1.19
761.079	70.48
761.263	52.05
761.446	103.25
761.63	19.29
761.813	162.64
761.997	64.34
762.18	121.68
762.364	119.64
762.547	56.15
762.731	62.29
762.914	78.68
763.098	136.02
763.281	43.86
763.464	-17.58
763.648	127.83
763.831	62.29
764.015	25.43
764.198	109.4
764.381	117.59
764.564	27.48
764.748	72.53
764.931	136.02
765.114	21.33
765.297	101.2
765.481	-29.87
765.664	97.11
765.847	150.36
766.03	213.84
766.213	45.91
766.397	117.59
766.58	-50.35
766.763	97.11
766.946	64.34
767.129	76.63
767.312	-11.43
767.495	99.16
767.678	31.57
767.861	82.77
768.044	107.35
768.227	-36.01
768.41	74.58
768.593	123.73
768.776	62.29
768.959	21.33
769.142	95.06
769.324	27.48
769.507	84.82
769.69	54.1
769.873	76.63
770.056	260.95
770.239	142.16
770.421	127.83
770.604	76.63
770.787	113.49
770.97	60.24
771.152	136.02
771.335	31.57
771.518	33.62
771.7	99.16
771.883	142.16
772.066	-17.58
772.248	105.3
772.431	54.1
772.613	95.06
772.796	119.64
772.978	82.77
773.161	138.07
773.343	23.38
773.526	-25.77
773.708	58.2
773.891	-33.96
774.073	74.58
774.256	50
774.438	144.21
774.621	39.76
774.803	33.62
774.985	35.67
775.168	111.44
775.35	54.1
775.532	168.79
775.715	27.48
775.897	25.43
776.079	0.85
776.261	52.05
776.444	-25.77
776.626	101.2
776.808	-42.15
776.99	-68.78
777.173	54.1
777.355	39.76
777.537	72.53
777.719	82.77
777.901	-27.82
778.083	86.87
778.265	-23.72
778.447	72.53
778.629	-19.63
778.811	15.19
778.993	58.2
779.175	105.3
779.357	99.16
779.539	-93.35
779.721	45.91
779.903	84.82
780.085	35.67
780.267	54.1
780.449	27.48
780.631	119.64
780.812	146.26
780.994	-38.06
781.176	54.1
781.358	-52.39
781.54	-27.82
781.721	109.4
781.903	117.59
782.085	31.57
782.267	88.92
782.448	-99.5
782.63	82.77
782.812	64.34
782.993	62.29
783.175	111.44
783.357	31.57
783.538	-17.58
783.72	-48.3
783.901	47.96
784.083	123.73
784.264	101.2
784.446	23.38
784.627	-85.16
784.809	50
784.99	15.19
785.172	45.91
785.353	-3.24
785.535	64.34
785.716	15.19
785.897	-68.78
786.079	-5.29
786.26	33.62
786.441	64.34
786.623	2.9
786.804	-46.25
786.985	47.96
787.167	82.77
787.348	52.05
787.529	19.29
787.71	185.17
787.891	11.09
788.073	-19.63
788.254	13.14
788.435	170.83
788.616	29.52
788.797	-21.67
788.978	-40.11
789.159	33.62
789.34	74.58
789.522	11.09
789.703	11.09
789.884	47.96
790.065	50
790.246	158.55
790.427	0.85
790.607	119.64
790.788	109.4
790.969	-56.49
791.15	23.38
791.331	-29.87
791.512	-40.11
791.693	-81.07
791.874	90.96
792.054	183.12
792.235	113.49
792.416	13.14
792.597	0.85
792.778	29.52
792.958	25.43
793.139	56.15
793.32	31.57
793.5	-58.54
793.681	142.16
793.862	33.62
794.042	-1.19
794.223	-117.93
794.404	50
794.584	-83.11
794.765	-50.35
794.945	-9.39
795.126	93.01
795.306	111.44
795.487	-1.19
795.667	29.52
795.848	148.31
796.028	15.19
796.209	19.29
796.389	105.3
796.57	72.53
796.75	-70.83
796.93	17.24
797.111	17.24
797.291	68.44
797.471	131.92
797.652	-13.48
797.832	39.76
798.012	103.25
798.192	17.24
798.373	-56.49
798.553	-17.58
798.733	66.39
798.913	-60.59
799.093	39.76
799.274	2.9
799.454	25.43
799.634	74.58
799.814	54.1
799.994	64.34
800.174	99.16
800.354	146.26
800.534	-87.21
800.714	-17.58
800.894	-97.45
801.074	-76.97
801.254	-44.2
801.434	60.24
801.614	-33.96
801.794	-5.29
801.974	1647.42
802.154	-33.96
802.334	39.76
802.514	-103.59
802.693	47.96
802.873	-7.34
803.053	146.26
803.233	19.29
803.413	-15.53
803.592	-76.97
803.772	-64.68
803.952	-19.63
804.131	-119.98
804.311	90.96
804.491	142.16
804.67	-91.31
804.85	-54.44
805.03	41.81
805.209	113.49
805.389	17.24
805.568	23.38
805.748	-17.58
805.928	35.67
806.107	111.44
806.287	15.19
806.466	62.29
806.646	-66.73
806.825	43.86
807.004	9.05
807.184	78.68
807.363	88.92
807.543	0.85
807.722	-60.59
807.901	144.21
808.081	99.16
808.26	-64.68
808.439	-122.02
808.619	4.95
808.798	31.57
808.977	-52.39
809.156	103.25
809.336	-23.72
809.515	66.39
809.694	-17.58
809.873	-83.11
810.052	11.09
810.231	39.76
810.411	-1.19
810.59	82.77
810.769	13.14
810.948	103.25
811.127	-105.64
811.306	-72.87
811.485	-36.01
811.664	150.36
811.843	-79.02
812.022	23.38
812.201	39.76
812.38	-17.58
812.559	-91.31
812.737	86.87
812.916	-148.65
813.095	-97.45
813.274	66.39
813.453	-11.43
813.632	-38.06
813.811	31.57
813.989	-70.83
814.168	4.95
814.347	-107.69
814.526	21.33
814.704	45.91
814.883	72.53
815.062	-48.3
815.24	54.1
815.419	-31.91
815.598	-17.58
815.776	-85.16
815.955	-48.3
816.133	-115.88
816.312	9.05
816.49	-50.35
816.669	-44.2
816.847	-7.34
817.026	99.16
817.204	27.48
817.383	15.19
817.561	-31.91
817.74	72.53
817.918	74.58
818.097	11.09
818.275	11.09
818.453	9.05
818.632	88.92
818.81	-66.73
818.988	-60.59
819.167	2.9
819.345	-9.39
819.523	29.52
819.701	43.86
819.879	52.05
820.058	-13.48
820.236	-7.34
820.414	-38.06
820.592	-66.73
820.77	-19.63
820.948	-19.63
821.127	-7.34
821.305	11.09
821.483	-83.11
821.661	64.34
821.839	7
822.017	7
822.195	-126.12
822.373	78.68
822.551	-17.58
822.729	9.05
822.907	50
823.085	43.86
823.262	23.38
823.44	-109.74
823.618	-3.24
823.796	4.95
823.974	19.29
824.152	-33.96
824.329	50
824.507	-5.29
824.685	29.52
824.863	15.19
825.04	13.14
825.218	19.29
825.396	37.72
825.574	11.09
825.751	50
825.929	9.05
826.107	-25.77
826.284	-33.96
826.462	29.52
826.639	-140.46
826.817	-23.72
826.994	-29.87
827.172	-19.63
827.349	99.16
827.527	-17.58
827.704	39.76
827.882	41.81
828.059	-101.55
828.237	-19.63
828.414	50
828.591	-81.07
828.769	23.38
828.946	-85.16
829.124	82.77
829.301	68.44
829.478	64.34
829.655	4.95
829.833	43.86
830.01	-91.31
830.187	33.62
830.364	52.05
830.542	4.95
830.719	144.21
830.896	7
831.073	21.33
831.25	17.24
831.427	101.2
831.604	-3.24
831.782	-117.93
831.959	25.43
832.136	-40.11
832.313	52.05
832.49	-17.58
832.667	-9.39
832.844	2.9
833.021	115.54
833.198	17.24
833.374	31.57
833.551	45.91
833.728	-68.78
833.905	68.44
834.082	-134.31
834.259	21.33
834.436	113.49
834.612	-68.78
834.789	113.49
834.966	-13.48
835.143	35.67
835.319	0.85
835.496	33.62
835.673	19.29
835.85	39.76
836.026	54.1
836.203	72.53
836.38	-11.43
836.556	-25.77
836.733	-48.3
836.909	152.4
837.086	-70.83
837.262	-21.67
837.439	-5.29
837.616	-72.87
837.792	33.62
837.968	45.91
838.145	-117.93
838.321	45.91
838.498	17.24
838.674	-7.34
838.851	82.77
839.027	19.29
839.203	33.62
839.38	-5.29
839.556	-111.78
839.732	43.86
839.909	4.95
840.085	23.38
840.261	-46.25
840.437	66.39
840.614	-7.34
840.79	121.68
840.966	9.05
841.142	-9.39
841.318	-60.59
841.494	47.96
841.671	99.16
841.847	-58.54
842.023	-89.26
842.199	27.48
842.375	107.35
842.551	-62.63
842.727	-54.44
842.903	37.72
843.079	-21.67
843.255	27.48
843.431	-25.77
843.607	82.77
843.783	-85.16
843.959	47.96
844.134	-44.2
844.31	123.73
844.486	-62.63
844.662	-60.59
844.838	-5.29
845.013	52.05
845.189	41.81
845.365	-29.87
845.541	-5.29
845.716	-101.55
845.892	21.33
846.068	-17.58
846.244	-3.24
846.419	15.19
846.595	-76.97
846.77	-99.5
846.946	107.35
847.122	-48.3
847.297	-95.4
847.473	80.72
847.648	-85.16
847.824	11.09
847.999	-128.17
848.175	4.95
848.35	0.85
848.526	56.15
848.701	-7.34
848.876	52.05
849.052	66.39
849.227	21.33
849.403	-29.87
849.578	37.72
849.753	-3.24
849.929	-27.82
850.104	-99.5
850.279	-29.87
850.454	72.53
850.63	-1.19
850.805	13.14
850.98	13.14
851.155	9.05
851.33	-27.82
851.505	-95.4
851.681	113.49
851.856	-33.96
852.031	45.91
852.206	-85.16
852.381	-42.15
852.556	-72.87
852.731	-44.2
852.906	-1.19
853.081	-23.72
853.256	33.62
853.431	-9.39
853.606	-60.59
853.781	-33.96
853.956	-62.63
854.131	29.52
854.305	-36.01
854.48	-29.87
854.655	-56.49
854.83	-29.87
855.005	-76.97
855.18	-38.06
855.354	-44.2
855.529	21.33
855.704	-5.29
855.879	52.05
856.053	-11.43
856.228	45.91
856.403	-97.45
856.577	31.57
856.752	-68.78
856.926	-70.83
857.101	-9.39
857.276	-91.31
857.45	-7.34
857.625	105.3
857.799	45.91
857.974	-42.15
858.148	-105.64
858.323	4.95
858.497	-33.96
858.672	-60.59
858.846	-130.22
859.02	66.39
859.195	-29.87
859.369	-60.59
859.543	-21.67
859.718	-5.29
859.892	47.96
860.066	4.95
860.241	2.9
860.415	-40.11
860.589	-11.43
860.763	-17.58
860.938	-91.31
861.112	0.85
861.286	4.95
861.46	-42.15
861.634	-64.68
861.808	23.38
861.982	-5.29
862.157	-113.83
862.331	-58.54
862.505	-107.69
862.679	-97.45
862.853	-58.54
863.027	-31.91
863.201	125.78
863.375	-48.3
863.549	-7.34
863.722	13.14
863.896	70.48
864.07	-66.73
864.244	11.09
864.418	-27.82
864.592	41.81
864.766	-48.3
864.939	9.05
865.113	13.14
865.287	107.35
865.461	-107.69
865.634	9.05
865.808	-15.53
865.982	-33.96
866.156	-9.39
866.329	-148.65
866.503	33.62
866.676	41.81
866.85	101.2
867.024	-83.11
867.197	-1.19
867.371	86.87
867.544	60.24
867.718	-87.21
867.891	103.25
868.065	-105.64
868.238	-31.91
868.412	82.77
868.585	58.2
868.759	25.43
868.932	-19.63
869.105	-46.25
869.279	-42.15
869.452	-17.58
869.625	113.49
869.799	-13.48
869.972	-58.54
870.145	-42.15
870.319	58.2
870.492	-25.77
870.665	-79.02
870.838	29.52
871.011	-136.36
871.185	45.91
871.358	-89.26
871.531	88.92
871.704	-29.87
871.877	-58.54
872.05	-87.21
872.223	-97.45
872.396	21.33
872.569	43.86
872.742	-40.11
872.915	41.81
873.088	-21.67
873.261	-50.35
873.434	9.05
873.607	45.91
873.78	103.25
873.953	2.9
874.126	29.52
874.299	15.19
874.471	-27.82
874.644	-27.82
874.817	78.68
874.99	125.78
875.163	-11.43
875.335	-60.59
875.508	-105.64
875.681	33.62
875.853	-15.53
876.026	-27.82
876.199	0.85
876.371	43.86
876.544	-29.87
876.717	-25.77
876.889	-46.25
877.062	-7.34
877.234	-169.13
877.407	-7.34
877.579	4.95
877.752	43.86
877.924	74.58
878.097	37.72
878.269	-56.49
878.442	-5.29
878.614	27.48
878.786	58.2
878.959	-38.06
879.131	0.85
879.303	-138.41
879.476	-72.87
879.648	103.25
879.82	-40.11
879.993	-76.97
880.165	31.57
880.337	-111.78
880.509	-62.63
880.681	-122.02
880.854	-29.87
881.026	15.19
881.198	140.12
881.37	-52.39
881.542	17.24
881.714	-19.63
881.886	-46.25
882.058	-17.58
882.23	52.05
882.402	-3.24
882.574	23.38
882.746	-38.06
882.918	78.68
883.09	60.24
883.262	23.38
883.434	-42.15
883.606	-85.16
883.778	-38.06
883.95	144.21
884.122	-19.63
884.293	54.1
884.465	0.85
884.637	119.64
884.809	-11.43
884.98	-23.72
885.152	-3.24
885.324	35.67
885.496	-76.97
885.667	-62.63
885.839	-11.43
886.011	33.62
886.182	133.97
886.354	50
886.525	50
886.697	-68.78
886.869	-68.78
887.04	-60.59
887.212	68.44
887.383	84.82
887.555	-23.72
887.726	-76.97
887.897	-38.06
888.069	113.49
888.24	54.1
888.412	-68.78
888.583	47.96
888.754	-40.11
888.926	-130.22
889.097	-27.82
889.268	-91.31
889.44	2.9
889.611	-117.93
889.782	-128.17
889.953	-122.02
890.125	50
890.296	-46.25
890.467	-58.54
890.638	-46.25
890.809	-36.01
890.98	0.85
891.151	-5.29
891.323	93.01
891.494	0.85
891.665	-1.19
891.836	-19.63
892.007	-31.91
892.178	45.91
892.349	4.95
892.52	19.29
892.691	2.9
892.862	-83.11
893.032	-122.02
893.203	-1.19
893.374	-31.91
893.545	119.64
893.716	-3.24
893.887	29.52
894.057	-19.63
894.228	-9.39
894.399	-89.26
894.57	23.38
894.74	21.33
894.911	-25.77
895.082	-115.88
895.253	-64.68
895.423	56.15
895.594	-17.58
895.764	-42.15
895.935	-25.77
896.106	-21.67
896.276	-72.87
896.447	70.48
896.617	-31.91
896.788	-175.27
896.958	-64.68
897.129	-64.68
897.299	35.67
897.47	82.77
897.64	2.9
897.81	-38.06
897.981	-3.24
898.151	-5.29
898.322	82.77
898.492	2.9
898.662	-62.63
898.832	-58.54
899.003	-87.21
899.173	62.29
899.343	-76.97
899.513	-113.83
