% Moku:Go Oscilloscope
% Channel A (Input 1), DC coupling, 1 x probe attenuation
% Channel B (Input 2), DC coupling, 1 x probe attenuation
% Time span 33.00 ms, time offset 0.000 s, Normal acquisition mode, no averaging
% Edge trigger: Channel A, level 0.000 V, Auto mode, Rising edge, Auto sensitivity, noise reject off, HF reject off
% Output 1 (on) - Sine, 300.000 000 Hz, 10.000 0 Vpp, offset 0.000 0 V, phase 0.000 000 deg
% Output 2 (off) - Ramp, 50.000 000 000 kHz, 500.0 mVpp, offset 0.000 0 V, phase 0.000 000 deg, symmetry 90.00 %
% Acquired 2025-03-26 T 09:53:26 -0400
% Time (s), Channel A (V)
-2.2064640000e-02, 1.0698583801e+00
-2.2061936000e-02, 1.0576453849e+00
-2.2059232000e-02, 1.0454323897e+00
-2.2056528000e-02, 1.0405471916e+00
-2.2053824000e-02, 1.0307767955e+00
-2.2051120000e-02, 1.0210063993e+00
-2.2048416000e-02, 1.0087934041e+00
-2.2045712000e-02, 1.0014656070e+00
-2.2043008000e-02, 9.8681001272e-01
-2.2040304000e-02, 9.7703961655e-01
-2.2037600000e-02, 9.6482662135e-01
-2.2034896000e-02, 9.5261362614e-01
-2.2032192000e-02, 9.4040063093e-01
-2.2029488000e-02, 9.3063023477e-01
-2.2026784000e-02, 9.2085983860e-01
-2.2024080000e-02, 9.0864684340e-01
-2.2021376000e-02, 8.9887644723e-01
-2.2018672000e-02, 8.8422085298e-01
-2.2015968000e-02, 8.6956525873e-01
-2.2013264000e-02, 8.6223746161e-01
-2.2010560000e-02, 8.4513926832e-01
-2.2007856000e-02, 8.3536887215e-01
-2.2005152000e-02, 8.2559847599e-01
-2.2002448000e-02, 8.1582807982e-01
-2.1999744000e-02, 8.0361508462e-01
-2.1997040000e-02, 7.9628728749e-01
-2.1994336000e-02, 7.8163169324e-01
-2.1991632000e-02, 7.7186129708e-01
-2.1988928000e-02, 7.6209090091e-01
-2.1986224000e-02, 7.4987790571e-01
-2.1983520000e-02, 7.4010750954e-01
-2.1980816000e-02, 7.3033711337e-01
-2.1978112000e-02, 7.2056671721e-01
-2.1975408000e-02, 7.0835372200e-01
-2.1972704000e-02, 6.9858332584e-01
-2.1970000000e-02, 6.8881292967e-01
-2.1967296000e-02, 6.8148513255e-01
-2.1964592000e-02, 6.6927213734e-01
-2.1961888000e-02, 6.6438693926e-01
-2.1959184000e-02, 6.5705914213e-01
-2.1956480000e-02, 6.4484614693e-01
-2.1953776000e-02, 6.3751834980e-01
-2.1951072000e-02, 6.3263315172e-01
-2.1948368000e-02, 6.2530535460e-01
-2.1945664000e-02, 6.1797755747e-01
-2.1942960000e-02, 6.0820716131e-01
-2.1940256000e-02, 6.0332196322e-01
-2.1937552000e-02, 5.9843676514e-01
-2.1934848000e-02, 5.9355156706e-01
-2.1932144000e-02, 5.8622376993e-01
-2.1929440000e-02, 5.8133857185e-01
-2.1926736000e-02, 5.7889597281e-01
-2.1924032000e-02, 5.7156817568e-01
-2.1921328000e-02, 5.7156817568e-01
-2.1918624000e-02, 5.6424037856e-01
-2.1915920000e-02, 5.6424037856e-01
-2.1913216000e-02, 5.6179777952e-01
-2.1910512000e-02, 5.5691258144e-01
-2.1907808000e-02, 5.5691258144e-01
-2.1905104000e-02, 5.5446998239e-01
-2.1902400000e-02, 5.5202738335e-01
-2.1899696000e-02, 5.5446998239e-01
-2.1896992000e-02, 5.5202738335e-01
-2.1894288000e-02, 5.5446998239e-01
-2.1891584000e-02, 5.5446998239e-01
-2.1888880000e-02, 5.5691258144e-01
-2.1886176000e-02, 5.5446998239e-01
-2.1883472000e-02, 5.5691258144e-01
-2.1880768000e-02, 5.5935518048e-01
-2.1878064000e-02, 5.6424037856e-01
-2.1875360000e-02, 5.6912557664e-01
-2.1872656000e-02, 5.6912557664e-01
-2.1869952000e-02, 5.7401077473e-01
-2.1867248000e-02, 5.7889597281e-01
-2.1864544000e-02, 5.8133857185e-01
-2.1861840000e-02, 5.8866636897e-01
-2.1859136000e-02, 5.9110896802e-01
-2.1856432000e-02, 5.9843676514e-01
-2.1853728000e-02, 6.0087936418e-01
-2.1851024000e-02, 6.1064976035e-01
-2.1848320000e-02, 6.1797755747e-01
-2.1845616000e-02, 6.2530535460e-01
-2.1842912000e-02, 6.3019055268e-01
-2.1840208000e-02, 6.3996094884e-01
-2.1837504000e-02, 6.4240354788e-01
-2.1834800000e-02, 6.4973134501e-01
-2.1832096000e-02, 6.6438693926e-01
-2.1829392000e-02, 6.6927213734e-01
-2.1826688000e-02, 6.8148513255e-01
-2.1823984000e-02, 6.8881292967e-01
-2.1821280000e-02, 6.9858332584e-01
-2.1818576000e-02, 7.0835372200e-01
-2.1815872000e-02, 7.1812411817e-01
-2.1813168000e-02, 7.2789451433e-01
-2.1810464000e-02, 7.3766491050e-01
-2.1807760000e-02, 7.4987790571e-01
-2.1805056000e-02, 7.5964830187e-01
-2.1802352000e-02, 7.7186129708e-01
-2.1799648000e-02, 7.7674649516e-01
-2.1796944000e-02, 7.9140208941e-01
-2.1794240000e-02, 8.0117248558e-01
-2.1791536000e-02, 8.1094288174e-01
-2.1788832000e-02, 8.2315587695e-01
-2.1786128000e-02, 8.3292627311e-01
-2.1783424000e-02, 8.4513926832e-01
-2.1780720000e-02, 8.5490966449e-01
-2.1778016000e-02, 8.6468006065e-01
-2.1775312000e-02, 8.7689305586e-01
-2.1772608000e-02, 8.8666345202e-01
-2.1769904000e-02, 8.9887644723e-01
-2.1767200000e-02, 9.0620424435e-01
-2.1764496000e-02, 9.2085983860e-01
-2.1761792000e-02, 9.2818763573e-01
-2.1759088000e-02, 9.4040063093e-01
-2.1756384000e-02, 9.4528582902e-01
-2.1753680000e-02, 9.5994142327e-01
-2.1750976000e-02, 9.6971181943e-01
-2.1748272000e-02, 9.8192481464e-01
-2.1745568000e-02, 9.9169521080e-01
-2.1742864000e-02, 9.9902300793e-01
-2.1740160000e-02, 1.0087934041e+00
-2.1737456000e-02, 1.0185638003e+00
-2.1734752000e-02, 1.0258915974e+00
-2.1732048000e-02, 1.0332193945e+00
-2.1729344000e-02, 1.0429897907e+00
-2.1726640000e-02, 1.0503175878e+00
-2.1723936000e-02, 1.0576453849e+00
-2.1721232000e-02, 1.0649731820e+00
-2.1718528000e-02, 1.0723009792e+00
-2.1715824000e-02, 1.0820713753e+00
-2.1713120000e-02, 1.0845139744e+00
-2.1710416000e-02, 1.0942843705e+00
-2.1707712000e-02, 1.0991695686e+00
-2.1705008000e-02, 1.1064973657e+00
-2.1702304000e-02, 1.1113825638e+00
-2.1699600000e-02, 1.1162677619e+00
-2.1696896000e-02, 1.1211529600e+00
-2.1694192000e-02, 1.1235955590e+00
-2.1691488000e-02, 1.1284807571e+00
-2.1688784000e-02, 1.1284807571e+00
-2.1686080000e-02, 1.1382511533e+00
-2.1683376000e-02, 1.1406937523e+00
-2.1680672000e-02, 1.1406937523e+00
-2.1677968000e-02, 1.1406937523e+00
-2.1675264000e-02, 1.1431363514e+00
-2.1672560000e-02, 1.1455789504e+00
-2.1669856000e-02, 1.1455789504e+00
-2.1667152000e-02, 1.1504641485e+00
-2.1664448000e-02, 1.1455789504e+00
-2.1661744000e-02, 1.1504641485e+00
-2.1659040000e-02, 1.1504641485e+00
-2.1656336000e-02, 1.1504641485e+00
-2.1653632000e-02, 1.1455789504e+00
-2.1650928000e-02, 1.1455789504e+00
-2.1648224000e-02, 1.1406937523e+00
-2.1645520000e-02, 1.1406937523e+00
-2.1642816000e-02, 1.1406937523e+00
-2.1640112000e-02, 1.1333659552e+00
-2.1637408000e-02, 1.1333659552e+00
-2.1634704000e-02, 1.1309233562e+00
-2.1632000000e-02, 1.1260381581e+00
-2.1629296000e-02, 1.1235955590e+00
-2.1626592000e-02, 1.1138251629e+00
-2.1623888000e-02, 1.1089399648e+00
-2.1621184000e-02, 1.1089399648e+00
-2.1618480000e-02, 1.0991695686e+00
-2.1615776000e-02, 1.0967269696e+00
-2.1613072000e-02, 1.0893991725e+00
-2.1610368000e-02, 1.0845139744e+00
-2.1607664000e-02, 1.0723009792e+00
-2.1604960000e-02, 1.0698583801e+00
-2.1602256000e-02, 1.0600879840e+00
-2.1599552000e-02, 1.0552027859e+00
-2.1596848000e-02, 1.0478749888e+00
-2.1594144000e-02, 1.0356619935e+00
-2.1591440000e-02, 1.0307767955e+00
-2.1588736000e-02, 1.0185638003e+00
-2.1586032000e-02, 1.0112360031e+00
-2.1583328000e-02, 1.0063508051e+00
-2.1580624000e-02, 9.9658040889e-01
-2.1577920000e-02, 9.8681001272e-01
-2.1575216000e-02, 9.7948221560e-01
-2.1572512000e-02, 9.6971181943e-01
-2.1569808000e-02, 9.5505622518e-01
-2.1567104000e-02, 9.4772842806e-01
-2.1564400000e-02, 9.4040063093e-01
-2.1561696000e-02, 9.3063023477e-01
-2.1558992000e-02, 9.2085983860e-01
-2.1556288000e-02, 9.0864684340e-01
-2.1553584000e-02, 8.9643384819e-01
-2.1550880000e-02, 8.8910605107e-01
-2.1548176000e-02, 8.7445045682e-01
-2.1545472000e-02, 8.6468006065e-01
-2.1542768000e-02, 8.5490966449e-01
-2.1540064000e-02, 8.4513926832e-01
-2.1537360000e-02, 8.3781147120e-01
-2.1534656000e-02, 8.2559847599e-01
-2.1531952000e-02, 8.1582807982e-01
-2.1529248000e-02, 8.0605768366e-01
-2.1526544000e-02, 7.9628728749e-01
-2.1523840000e-02, 7.8651689133e-01
-2.1521136000e-02, 7.7430389612e-01
-2.1518432000e-02, 7.6209090091e-01
-2.1515728000e-02, 7.4987790571e-01
-2.1513024000e-02, 7.4010750954e-01
-2.1510320000e-02, 7.3033711337e-01
-2.1507616000e-02, 7.2300931625e-01
-2.1504912000e-02, 7.0835372200e-01
-2.1502208000e-02, 7.0102592488e-01
-2.1499504000e-02, 6.9125552871e-01
-2.1496800000e-02, 6.8148513255e-01
-2.1494096000e-02, 6.7171473638e-01
-2.1491392000e-02, 6.6682953830e-01
-2.1488688000e-02, 6.5461654309e-01
-2.1485984000e-02, 6.4240354788e-01
-2.1483280000e-02, 6.3507575076e-01
-2.1480576000e-02, 6.2774795364e-01
-2.1477872000e-02, 6.1797755747e-01
-2.1475168000e-02, 6.0820716131e-01
-2.1472464000e-02, 6.0087936418e-01
-2.1469760000e-02, 5.9355156706e-01
-2.1467056000e-02, 5.8622376993e-01
-2.1464352000e-02, 5.7889597281e-01
-2.1461648000e-02, 5.7156817568e-01
-2.1458944000e-02, 5.6424037856e-01
-2.1456240000e-02, 5.5691258144e-01
-2.1453536000e-02, 5.5202738335e-01
-2.1450832000e-02, 5.4225698719e-01
-2.1448128000e-02, 5.3492919006e-01
-2.1445424000e-02, 5.3004399198e-01
-2.1442720000e-02, 5.2271619486e-01
-2.1440016000e-02, 5.1538839773e-01
-2.1437312000e-02, 5.1050319965e-01
-2.1434608000e-02, 5.0806060061e-01
-2.1431904000e-02, 5.0073280348e-01
-2.1429200000e-02, 4.9829020444e-01
-2.1426496000e-02, 4.9340500636e-01
-2.1423792000e-02, 4.8851980828e-01
-2.1421088000e-02, 4.8607720924e-01
-2.1418384000e-02, 4.8363461019e-01
-2.1415680000e-02, 4.7874941211e-01
-2.1412976000e-02, 4.7386421403e-01
-2.1410272000e-02, 4.6897901595e-01
-2.1407568000e-02, 4.6897901595e-01
-2.1404864000e-02, 4.6653641691e-01
-2.1402160000e-02, 4.6409381786e-01
-2.1399456000e-02, 4.6409381786e-01
-2.1396752000e-02, 4.5920861978e-01
-2.1394048000e-02, 4.5676602074e-01
-2.1391344000e-02, 4.5920861978e-01
-2.1388640000e-02, 4.5676602074e-01
-2.1385936000e-02, 4.5188082266e-01
-2.1383232000e-02, 4.5432342170e-01
-2.1380528000e-02, 4.5432342170e-01
-2.1377824000e-02, 4.5676602074e-01
-2.1375120000e-02, 4.5432342170e-01
-2.1372416000e-02, 4.5676602074e-01
-2.1369712000e-02, 4.5676602074e-01
-2.1367008000e-02, 4.5432342170e-01
-2.1364304000e-02, 4.5676602074e-01
-2.1361600000e-02, 4.5920861978e-01
-2.1358896000e-02, 4.6165121882e-01
-2.1356192000e-02, 4.6409381786e-01
-2.1353488000e-02, 4.6409381786e-01
-2.1350784000e-02, 4.6653641691e-01
-2.1348080000e-02, 4.7142161499e-01
-2.1345376000e-02, 4.6897901595e-01
-2.1342672000e-02, 4.7630681307e-01
-2.1339968000e-02, 4.7630681307e-01
-2.1337264000e-02, 4.7874941211e-01
-2.1334560000e-02, 4.8363461019e-01
-2.1331856000e-02, 4.8607720924e-01
-2.1329152000e-02, 4.9096240732e-01
-2.1326448000e-02, 4.9340500636e-01
-2.1323744000e-02, 4.9829020444e-01
-2.1321040000e-02, 5.0073280348e-01
-2.1318336000e-02, 5.0806060061e-01
-2.1315632000e-02, 5.1050319965e-01
-2.1312928000e-02, 5.1783099677e-01
-2.1310224000e-02, 5.2027359582e-01
-2.1307520000e-02, 5.2271619486e-01
-2.1304816000e-02, 5.3248659102e-01
-2.1302112000e-02, 5.3492919006e-01
-2.1299408000e-02, 5.4225698719e-01
-2.1296704000e-02, 5.4958478431e-01
-2.1294000000e-02, 5.5446998239e-01
-2.1291296000e-02, 5.5691258144e-01
-2.1288592000e-02, 5.6424037856e-01
-2.1285888000e-02, 5.7156817568e-01
-2.1283184000e-02, 5.7401077473e-01
-2.1280480000e-02, 5.7645337377e-01
-2.1277776000e-02, 5.8866636897e-01
-2.1275072000e-02, 5.9599416610e-01
-2.1272368000e-02, 6.0332196322e-01
-2.1269664000e-02, 6.1064976035e-01
-2.1266960000e-02, 6.1553495843e-01
-2.1264256000e-02, 6.2286275555e-01
-2.1261552000e-02, 6.2774795364e-01
-2.1258848000e-02, 6.3751834980e-01
-2.1256144000e-02, 6.3996094884e-01
-2.1253440000e-02, 6.4973134501e-01
-2.1250736000e-02, 6.5705914213e-01
-2.1248032000e-02, 6.6682953830e-01
-2.1245328000e-02, 6.7171473638e-01
-2.1242624000e-02, 6.7904253351e-01
-2.1239920000e-02, 6.8637033063e-01
-2.1237216000e-02, 6.9125552871e-01
-2.1234512000e-02, 7.0102592488e-01
-2.1231808000e-02, 7.0591112296e-01
-2.1229104000e-02, 7.1568151913e-01
-2.1226400000e-02, 7.2545191529e-01
-2.1223696000e-02, 7.3277971242e-01
-2.1220992000e-02, 7.3766491050e-01
-2.1218288000e-02, 7.4743530666e-01
-2.1215584000e-02, 7.5232050475e-01
-2.1212880000e-02, 7.6209090091e-01
-2.1210176000e-02, 7.6941869804e-01
-2.1207472000e-02, 7.7186129708e-01
-2.1204768000e-02, 7.8407429229e-01
-2.1202064000e-02, 7.9140208941e-01
-2.1199360000e-02, 7.9872988653e-01
-2.1196656000e-02, 8.0850028270e-01
-2.1193952000e-02, 8.1582807982e-01
-2.1191248000e-02, 8.2315587695e-01
-2.1188544000e-02, 8.3048367407e-01
-2.1185840000e-02, 8.3781147120e-01
-2.1183136000e-02, 8.4513926832e-01
-2.1180432000e-02, 8.5246706544e-01
-2.1177728000e-02, 8.6223746161e-01
-2.1175024000e-02, 8.7200785778e-01
-2.1172320000e-02, 8.7445045682e-01
-2.1169616000e-02, 8.8422085298e-01
-2.1166912000e-02, 8.9154865011e-01
-2.1164208000e-02, 8.9643384819e-01
-2.1161504000e-02, 9.0864684340e-01
-2.1158800000e-02, 9.1353204148e-01
-2.1156096000e-02, 9.1841723956e-01
-2.1153392000e-02, 9.3063023477e-01
-2.1150688000e-02, 9.3795803189e-01
-2.1147984000e-02, 9.4040063093e-01
-2.1145280000e-02, 9.5017102710e-01
-2.1142576000e-02, 9.5749882422e-01
-2.1139872000e-02, 9.6238402231e-01
-2.1137168000e-02, 9.7215441847e-01
-2.1134464000e-02, 9.7948221560e-01
-2.1131760000e-02, 9.8192481464e-01
-2.1129056000e-02, 9.9169521080e-01
-2.1126352000e-02, 9.9902300793e-01
-2.1123648000e-02, 1.0063508051e+00
-2.1120944000e-02, 1.0087934041e+00
-2.1118240000e-02, 1.0210063993e+00
-2.1115536000e-02, 1.0234489983e+00
-2.1112832000e-02, 1.0332193945e+00
-2.1110128000e-02, 1.0381045926e+00
-2.1107424000e-02, 1.0454323897e+00
-2.1104720000e-02, 1.0527601868e+00
-2.1102016000e-02, 1.0600879840e+00
-2.1099312000e-02, 1.0600879840e+00
-2.1096608000e-02, 1.0698583801e+00
-2.1093904000e-02, 1.0796287763e+00
-2.1091200000e-02, 1.0845139744e+00
-2.1088496000e-02, 1.0893991725e+00
-2.1085792000e-02, 1.0967269696e+00
-2.1083088000e-02, 1.1016121677e+00
-2.1080384000e-02, 1.1040547667e+00
-2.1077680000e-02, 1.1138251629e+00
-2.1074976000e-02, 1.1187103610e+00
-2.1072272000e-02, 1.1235955590e+00
-2.1069568000e-02, 1.1284807571e+00
-2.1066864000e-02, 1.1382511533e+00
-2.1064160000e-02, 1.1431363514e+00
-2.1061456000e-02, 1.1431363514e+00
-2.1058752000e-02, 1.1504641485e+00
-2.1056048000e-02, 1.1577919456e+00
-2.1053344000e-02, 1.1626771437e+00
-2.1050640000e-02, 1.1675623418e+00
-2.1047936000e-02, 1.1748901389e+00
-2.1045232000e-02, 1.1773327379e+00
-2.1042528000e-02, 1.1846605351e+00
-2.1039824000e-02, 1.1895457332e+00
-2.1037120000e-02, 1.1944309312e+00
-2.1034416000e-02, 1.1993161293e+00
-2.1031712000e-02, 1.2042013274e+00
-2.1029008000e-02, 1.2066439264e+00
-2.1026304000e-02, 1.2139717236e+00
-2.1023600000e-02, 1.2188569217e+00
-2.1020896000e-02, 1.2212995207e+00
-2.1018192000e-02, 1.2212995207e+00
-2.1015488000e-02, 1.2286273178e+00
-2.1012784000e-02, 1.2310699169e+00
-2.1010080000e-02, 1.2359551149e+00
-2.1007376000e-02, 1.2408403130e+00
-2.1004672000e-02, 1.2432829121e+00
-2.1001968000e-02, 1.2530533082e+00
-2.0999264000e-02, 1.2554959073e+00
-2.0996560000e-02, 1.2579385063e+00
-2.0993856000e-02, 1.2603811054e+00
-2.0991152000e-02, 1.2701515015e+00
-2.0988448000e-02, 1.2701515015e+00
-2.0985744000e-02, 1.2725941006e+00
-2.0983040000e-02, 1.2774792986e+00
-2.0980336000e-02, 1.2799218977e+00
-2.0977632000e-02, 1.2823644967e+00
-2.0974928000e-02, 1.2896922939e+00
-2.0972224000e-02, 1.2872496948e+00
-2.0969520000e-02, 1.2896922939e+00
-2.0966816000e-02, 1.2994626900e+00
-2.0964112000e-02, 1.2970200910e+00
-2.0961408000e-02, 1.3043478881e+00
-2.0958704000e-02, 1.3067904871e+00
-2.0956000000e-02, 1.3092330862e+00
-2.0953296000e-02, 1.3116756852e+00
-2.0950592000e-02, 1.3165608833e+00
-2.0947888000e-02, 1.3165608833e+00
-2.0945184000e-02, 1.3165608833e+00
-2.0942480000e-02, 1.3214460814e+00
-2.0939776000e-02, 1.3190034823e+00
-2.0937072000e-02, 1.3287738785e+00
-2.0934368000e-02, 1.3287738785e+00
-2.0931664000e-02, 1.3287738785e+00
-2.0928960000e-02, 1.3287738785e+00
-2.0926256000e-02, 1.3336590766e+00
-2.0923552000e-02, 1.3361016756e+00
-2.0920848000e-02, 1.3336590766e+00
-2.0918144000e-02, 1.3385442747e+00
-2.0915440000e-02, 1.3361016756e+00
-2.0912736000e-02, 1.3409868737e+00
-2.0910032000e-02, 1.3458720718e+00
-2.0907328000e-02, 1.3409868737e+00
-2.0904624000e-02, 1.3458720718e+00
-2.0901920000e-02, 1.3434294728e+00
-2.0899216000e-02, 1.3458720718e+00
-2.0896512000e-02, 1.3458720718e+00
-2.0893808000e-02, 1.3458720718e+00
-2.0891104000e-02, 1.3507572699e+00
-2.0888400000e-02, 1.3507572699e+00
-2.0885696000e-02, 1.3483146708e+00
-2.0882992000e-02, 1.3531998689e+00
-2.0880288000e-02, 1.3531998689e+00
-2.0877584000e-02, 1.3531998689e+00
-2.0874880000e-02, 1.3507572699e+00
-2.0872176000e-02, 1.3531998689e+00
-2.0869472000e-02, 1.3507572699e+00
-2.0866768000e-02, 1.3531998689e+00
-2.0864064000e-02, 1.3507572699e+00
-2.0861360000e-02, 1.3483146708e+00
-2.0858656000e-02, 1.3531998689e+00
-2.0855952000e-02, 1.3483146708e+00
-2.0853248000e-02, 1.3483146708e+00
-2.0850544000e-02, 1.3483146708e+00
-2.0847840000e-02, 1.3458720718e+00
-2.0845136000e-02, 1.3483146708e+00
-2.0842432000e-02, 1.3458720718e+00
-2.0839728000e-02, 1.3458720718e+00
-2.0837024000e-02, 1.3409868737e+00
-2.0834320000e-02, 1.3409868737e+00
-2.0831616000e-02, 1.3409868737e+00
-2.0828912000e-02, 1.3385442747e+00
-2.0826208000e-02, 1.3361016756e+00
-2.0823504000e-02, 1.3336590766e+00
-2.0820800000e-02, 1.3336590766e+00
-2.0818096000e-02, 1.3287738785e+00
-2.0815392000e-02, 1.3287738785e+00
-2.0812688000e-02, 1.3238886804e+00
-2.0809984000e-02, 1.3214460814e+00
-2.0807280000e-02, 1.3214460814e+00
-2.0804576000e-02, 1.3141182843e+00
-2.0801872000e-02, 1.3141182843e+00
-2.0799168000e-02, 1.3141182843e+00
-2.0796464000e-02, 1.3067904871e+00
-2.0793760000e-02, 1.3043478881e+00
-2.0791056000e-02, 1.3019052891e+00
-2.0788352000e-02, 1.2970200910e+00
-2.0785648000e-02, 1.2896922939e+00
-2.0782944000e-02, 1.2896922939e+00
-2.0780240000e-02, 1.2848070958e+00
-2.0777536000e-02, 1.2823644967e+00
-2.0774832000e-02, 1.2774792986e+00
-2.0772128000e-02, 1.2725941006e+00
-2.0769424000e-02, 1.2677089025e+00
-2.0766720000e-02, 1.2628237044e+00
-2.0764016000e-02, 1.2579385063e+00
-2.0761312000e-02, 1.2530533082e+00
-2.0758608000e-02, 1.2481681101e+00
-2.0755904000e-02, 1.2408403130e+00
-2.0753200000e-02, 1.2335125159e+00
-2.0750496000e-02, 1.2310699169e+00
-2.0747792000e-02, 1.2261847188e+00
-2.0745088000e-02, 1.2188569217e+00
-2.0742384000e-02, 1.2164143226e+00
-2.0739680000e-02, 1.2090865255e+00
-2.0736976000e-02, 1.2042013274e+00
-2.0734272000e-02, 1.1968735303e+00
-2.0731568000e-02, 1.1895457332e+00
-2.0728864000e-02, 1.1822179360e+00
-2.0726160000e-02, 1.1773327379e+00
-2.0723456000e-02, 1.1675623418e+00
-2.0720752000e-02, 1.1651197427e+00
-2.0718048000e-02, 1.1553493466e+00
-2.0715344000e-02, 1.1455789504e+00
-2.0712640000e-02, 1.1382511533e+00
-2.0709936000e-02, 1.1333659552e+00
-2.0707232000e-02, 1.1235955590e+00
-2.0704528000e-02, 1.1162677619e+00
-2.0701824000e-02, 1.1040547667e+00
-2.0699120000e-02, 1.0991695686e+00
-2.0696416000e-02, 1.0918417715e+00
-2.0693712000e-02, 1.0845139744e+00
-2.0691008000e-02, 1.0723009792e+00
-2.0688304000e-02, 1.0698583801e+00
-2.0685600000e-02, 1.0576453849e+00
-2.0682896000e-02, 1.0478749888e+00
-2.0680192000e-02, 1.0429897907e+00
-2.0677488000e-02, 1.0307767955e+00
-2.0674784000e-02, 1.0234489983e+00
-2.0672080000e-02, 1.0087934041e+00
-2.0669376000e-02, 1.0039082060e+00
-2.0666672000e-02, 9.9169521080e-01
-2.0663968000e-02, 9.8436741368e-01
-2.0661264000e-02, 9.7215441847e-01
-2.0658560000e-02, 9.6482662135e-01
-2.0655856000e-02, 9.5994142327e-01
-2.0653152000e-02, 9.4772842806e-01
-2.0650448000e-02, 9.4040063093e-01
-2.0647744000e-02, 9.2574503669e-01
-2.0645040000e-02, 9.1841723956e-01
-2.0642336000e-02, 9.0620424435e-01
-2.0639632000e-02, 8.9887644723e-01
-2.0636928000e-02, 8.8422085298e-01
-2.0634224000e-02, 8.7933565490e-01
-2.0631520000e-02, 8.6468006065e-01
-2.0628816000e-02, 8.5490966449e-01
-2.0626112000e-02, 8.5002446640e-01
-2.0623408000e-02, 8.3781147120e-01
-2.0620704000e-02, 8.2559847599e-01
-2.0618000000e-02, 8.1582807982e-01
-2.0615296000e-02, 8.0605768366e-01
-2.0612592000e-02, 7.9628728749e-01
