Data from USB4F104151__27__09-26-29-414.txt Node

Date: Wed Feb 26 09:26:29 EST 2025
User: louis
Spectrometer: USB4F10415
Trigger mode: 4
Integration Time (sec): 1.000000E-1
Scans to average: 1
Electric dark correction enabled: true
Nonlinearity correction enabled: false
Boxcar width: 0
XAxis mode: Wavelengths
Number of Pixels in Spectrum: 3648
>>>>>Begin Spectral Data<<<<<
178.204	-279.72
178.424	-279.72
178.644	-279.72
178.864	-341.16
179.084	-375.97
179.304	-21.67
179.524	-21.67
179.744	15.19
179.964	29.52
180.184	7
180.404	-15.53
180.624	-9.39
180.844	15.19
181.064	2.9
181.283	4.95
181.503	-13.48
181.723	7
181.943	-130.22
182.163	150.36
182.383	39.76
182.602	93.01
182.822	158.55
183.042	54.1
183.262	-15.53
183.482	29.52
183.701	-15.53
183.921	-58.54
184.141	-70.83
184.361	54.1
184.58	78.68
184.8	15.19
185.02	11.09
185.239	123.73
185.459	47.96
185.679	54.1
185.898	-74.92
186.118	68.44
186.338	64.34
186.557	138.07
186.777	-5.29
186.997	-13.48
187.216	2.9
187.436	191.31
187.655	41.81
187.875	82.77
188.095	88.92
188.314	58.2
188.534	58.2
188.753	-27.82
188.973	109.4
189.192	131.92
189.412	0.85
189.631	27.48
189.851	70.48
190.07	76.63
190.29	-1.19
190.509	-36.01
190.729	56.15
190.948	142.16
191.168	232.27
191.387	80.72
191.607	21.33
191.826	66.39
192.045	52.05
192.265	-5.29
192.484	-29.87
192.704	-15.53
192.923	-46.25
193.142	138.07
193.362	99.16
193.581	183.12
193.8	72.53
194.02	101.2
194.239	-5.29
194.458	47.96
194.678	62.29
194.897	54.1
195.116	111.44
195.335	80.72
195.555	74.58
195.774	-33.96
195.993	95.06
196.212	27.48
196.432	66.39
196.651	80.72
196.87	0.85
197.089	215.89
197.308	107.35
197.528	2.9
197.747	-23.72
197.966	64.34
198.185	84.82
198.404	-23.72
198.623	158.55
198.842	56.15
199.062	115.54
199.281	54.1
199.5	93.01
199.719	93.01
199.938	90.96
200.157	76.63
200.376	41.81
200.595	93.01
200.814	72.53
201.033	-38.06
201.252	197.46
201.471	23.38
201.69	90.96
201.909	37.72
202.128	113.49
202.347	9.05
202.566	43.86
202.785	-40.11
203.004	-17.58
203.223	166.74
203.442	15.19
203.661	-25.77
203.879	35.67
204.098	152.4
204.317	-21.67
204.536	2.9
204.755	62.29
204.974	80.72
205.193	-38.06
205.411	117.59
205.63	138.07
205.849	-29.87
206.068	11.09
206.287	-11.43
206.505	60.24
206.724	80.72
206.943	-23.72
207.162	35.67
207.381	-31.91
207.599	-58.54
207.818	7
208.037	25.43
208.255	-46.25
208.474	97.11
208.693	27.48
208.911	72.53
209.13	88.92
209.349	115.54
209.567	39.76
209.786	131.92
210.005	99.16
210.223	35.67
210.442	2.9
210.661	39.76
210.879	68.44
211.098	64.34
211.316	72.53
211.535	90.96
211.753	58.2
211.972	93.01
212.191	-15.53
212.409	-40.11
212.628	121.68
212.846	-19.63
213.065	52.05
213.283	117.59
213.502	0.85
213.72	13.14
213.938	45.91
214.157	43.86
214.375	86.87
214.594	97.11
214.812	117.59
215.031	58.2
215.249	29.52
215.467	95.06
215.686	15.19
215.904	88.92
216.122	84.82
216.341	109.4
216.559	-29.87
216.778	52.05
216.996	133.97
217.214	-17.58
217.432	29.52
217.651	11.09
217.869	60.24
218.087	2.9
218.306	-33.96
218.524	97.11
218.742	-15.53
218.96	154.45
219.179	-31.91
219.397	41.81
219.615	256.85
219.833	105.3
220.051	9.05
220.27	117.59
220.488	33.62
220.706	29.52
220.924	-13.48
221.142	0.85
221.36	33.62
221.578	76.63
221.796	58.2
222.015	-29.87
222.233	27.48
222.451	140.12
222.669	27.48
222.887	41.81
223.105	-21.67
223.323	41.81
223.541	-13.48
223.759	7
223.977	31.57
224.195	144.21
224.413	129.88
224.631	125.78
224.849	35.67
225.067	205.65
225.285	-7.34
225.503	4.95
225.721	0.85
225.939	101.2
226.157	64.34
226.375	203.6
226.592	9.05
226.81	84.82
227.028	62.29
227.246	133.97
227.464	33.62
227.682	93.01
227.9	68.44
228.117	95.06
228.335	19.29
228.553	-7.34
228.771	76.63
228.989	23.38
229.206	50
229.424	27.48
229.642	41.81
229.86	-50.35
230.077	138.07
230.295	47.96
230.513	113.49
230.731	-21.67
230.948	123.73
231.166	176.98
231.384	-15.53
231.601	19.29
231.819	148.31
232.037	-27.82
232.254	2.9
232.472	95.06
232.689	-5.29
232.907	64.34
233.125	25.43
233.342	9.05
233.56	27.48
233.777	-29.87
233.995	-48.3
234.213	50
234.43	90.96
234.648	45.91
234.865	4.95
235.083	111.44
235.3	0.85
235.518	93.01
235.735	90.96
235.953	41.81
236.17	64.34
236.388	25.43
236.605	23.38
236.822	82.77
237.04	97.11
237.257	68.44
237.475	-9.39
237.692	119.64
237.909	54.1
238.127	2.9
238.344	17.24
238.562	101.2
238.779	-97.45
238.996	-9.39
239.214	2.9
239.431	56.15
239.648	27.48
239.865	99.16
240.083	88.92
240.3	-42.15
240.517	-13.48
240.735	74.58
240.952	111.44
241.169	72.53
241.386	13.14
241.603	35.67
241.821	-74.92
242.038	80.72
242.255	66.39
242.472	-64.68
242.689	64.34
242.907	31.57
243.124	-74.92
243.341	60.24
243.558	-29.87
243.775	-21.67
243.992	-33.96
244.209	2.9
244.426	170.83
244.643	70.48
244.86	41.81
245.078	113.49
245.295	70.48
245.512	-19.63
245.729	-15.53
245.946	54.1
246.163	15.19
246.38	-25.77
246.597	66.39
246.814	60.24
247.031	74.58
247.248	56.15
247.464	93.01
247.681	15.19
247.898	68.44
248.115	43.86
248.332	-21.67
248.549	154.45
248.766	129.88
248.983	74.58
249.2	74.58
249.417	88.92
249.633	35.67
249.85	88.92
250.067	56.15
250.284	97.11
250.501	15.19
250.717	31.57
250.934	-13.48
251.151	97.11
251.368	-17.58
251.585	176.98
251.801	52.05
252.018	-19.63
252.235	174.93
252.451	-23.72
252.668	117.59
252.885	101.2
253.102	140.12
253.318	25.43
253.535	2.9
253.752	-3.24
253.968	35.67
254.185	-1.19
254.401	-1.19
254.618	129.88
254.835	-48.3
255.051	133.97
255.268	111.44
255.484	109.4
255.701	37.72
255.917	80.72
256.134	-13.48
256.351	17.24
256.567	-38.06
256.784	45.91
257	-23.72
257.217	82.77
257.433	117.59
257.65	113.49
257.866	150.36
258.082	-54.44
258.299	-70.83
258.515	52.05
258.732	43.86
258.948	-58.54
259.165	23.38
259.381	25.43
259.597	29.52
259.814	11.09
260.03	35.67
260.246	41.81
260.463	150.36
260.679	47.96
260.895	41.81
261.112	-17.58
261.328	13.14
261.544	17.24
261.761	131.92
261.977	-33.96
262.193	2.9
262.409	62.29
262.626	78.68
262.842	70.48
263.058	50
263.274	80.72
263.49	105.3
263.707	107.35
263.923	84.82
264.139	45.91
264.355	56.15
264.571	74.58
264.787	123.73
265.004	101.2
265.22	15.19
265.436	-23.72
265.652	-17.58
265.868	78.68
266.084	-83.11
266.3	2.9
266.516	-56.49
266.732	-1.19
266.948	11.09
267.164	17.24
267.38	142.16
267.596	17.24
267.812	172.88
268.028	84.82
268.244	27.48
268.46	82.77
268.676	60.24
268.892	99.16
269.108	50
269.324	29.52
269.54	-50.35
269.756	35.67
269.972	47.96
270.188	29.52
270.403	-42.15
270.619	47.96
270.835	70.48
271.051	54.1
271.267	-38.06
271.483	7
271.698	70.48
271.914	105.3
272.13	43.86
272.346	2.9
272.562	66.39
272.777	84.82
272.993	25.43
273.209	-54.44
273.425	93.01
273.64	-1.19
273.856	60.24
274.072	-36.01
274.287	25.43
274.503	78.68
274.719	33.62
274.934	-38.06
275.15	-52.39
275.366	-48.3
275.581	-5.29
275.797	-15.53
276.012	11.09
276.228	-19.63
276.444	19.29
276.659	160.59
276.875	-7.34
277.09	68.44
277.306	52.05
277.521	88.92
277.737	29.52
277.952	170.83
278.168	41.81
278.383	35.67
278.599	95.06
278.814	-29.87
279.03	-13.48
279.245	138.07
279.461	66.39
279.676	95.06
279.892	-9.39
280.107	4.95
280.322	-21.67
280.538	74.58
280.753	-21.67
280.969	158.55
281.184	27.48
281.399	162.64
281.615	33.62
281.83	37.72
282.045	23.38
282.26	-5.29
282.476	47.96
282.691	56.15
282.906	45.91
283.122	52.05
283.337	-21.67
283.552	0.85
283.767	-5.29
283.983	43.86
284.198	-1.19
284.413	-21.67
284.628	-13.48
284.843	19.29
285.058	140.12
285.274	-38.06
285.489	7
285.704	15.19
285.919	7
286.134	64.34
286.349	101.2
286.564	-105.64
286.779	64.34
286.995	-3.24
287.21	-122.02
287.425	82.77
287.64	-23.72
287.855	88.92
288.07	2.9
288.285	123.73
288.5	99.16
288.715	93.01
288.93	9.05
289.145	-44.2
289.36	23.38
289.575	60.24
289.79	109.4
290.004	37.72
290.219	121.68
290.434	-17.58
290.649	50
290.864	78.68
291.079	56.15
291.294	11.09
291.509	39.76
291.724	88.92
291.938	109.4
292.153	72.53
292.368	11.09
292.583	72.53
292.798	88.92
293.012	13.14
293.227	97.11
293.442	70.48
293.657	27.48
293.871	127.83
294.086	90.96
294.301	99.16
294.516	43.86
294.73	31.57
294.945	-25.77
295.16	-9.39
295.374	101.2
295.589	76.63
295.804	-72.87
296.018	109.4
296.233	138.07
296.447	47.96
296.662	-36.01
296.877	52.05
297.091	47.96
297.306	66.39
297.52	-17.58
297.735	52.05
297.949	-56.49
298.164	43.86
298.378	90.96
298.593	-54.44
298.807	-66.73
299.022	29.52
299.236	174.93
299.451	-1.19
299.665	66.39
299.88	50
300.094	68.44
300.309	-21.67
300.523	64.34
300.737	-38.06
300.952	95.06
301.166	117.59
301.381	-23.72
301.595	23.38
301.809	58.2
302.024	25.43
302.238	4.95
302.452	105.3
302.667	23.38
302.881	107.35
303.095	60.24
303.309	50
303.524	-15.53
303.738	58.2
303.952	2.9
304.166	54.1
304.381	-70.83
304.595	183.12
304.809	-48.3
305.023	7
305.237	54.1
305.452	-27.82
305.666	107.35
305.88	58.2
306.094	99.16
306.308	52.05
306.522	131.92
306.736	72.53
306.95	154.45
307.164	15.19
307.379	60.24
307.593	80.72
307.807	88.92
308.021	68.44
308.235	56.15
308.449	13.14
308.663	93.01
308.877	207.7
309.091	0.85
309.305	37.72
309.519	-122.02
309.733	88.92
309.947	-64.68
310.161	60.24
310.374	17.24
310.588	162.64
310.802	45.91
311.016	-23.72
311.23	60.24
311.444	9.05
311.658	-60.59
311.872	117.59
312.085	90.96
312.299	121.68
312.513	203.6
312.727	74.58
312.941	2.9
313.154	13.14
313.368	45.91
313.582	0.85
313.796	105.3
314.009	-3.24
314.223	82.77
314.437	66.39
314.651	82.77
314.864	-7.34
315.078	115.54
315.292	-27.82
315.505	-38.06
315.719	76.63
315.933	62.29
316.146	64.34
316.36	-74.92
316.573	109.4
316.787	93.01
317.001	93.01
317.214	-70.83
317.428	27.48
317.641	-23.72
317.855	-25.77
318.068	54.1
318.282	47.96
318.495	168.79
318.709	78.68
318.922	68.44
319.136	136.02
319.349	84.82
319.563	-15.53
319.776	52.05
319.99	-91.31
320.203	68.44
320.417	-42.15
320.63	72.53
320.843	158.55
321.057	25.43
321.27	43.86
321.483	47.96
321.697	25.43
321.91	41.81
322.124	23.38
322.337	45.91
322.55	11.09
322.763	11.09
322.977	-113.83
323.19	-1.19
323.403	27.48
323.617	60.24
323.83	129.88
324.043	27.48
324.256	60.24
324.469	-64.68
324.683	45.91
324.896	-1.19
325.109	88.92
325.322	-95.4
325.535	76.63
325.748	125.78
325.962	15.19
326.175	15.19
326.388	99.16
326.601	45.91
326.814	-1.19
327.027	-1.19
327.24	72.53
327.453	-97.45
327.666	35.67
327.879	84.82
328.092	56.15
328.305	-5.29
328.518	-46.25
328.731	-31.91
328.944	62.29
329.157	35.67
329.37	62.29
329.583	113.49
329.796	123.73
330.009	-40.11
330.222	146.26
330.435	115.54
330.648	19.29
330.861	52.05
331.073	109.4
331.286	64.34
331.499	62.29
331.712	23.38
331.925	56.15
332.138	15.19
332.35	78.68
332.563	-17.58
332.776	138.07
332.989	21.33
333.202	-29.87
333.414	11.09
333.627	-7.34
333.84	72.53
334.053	39.76
334.265	-11.43
334.478	15.19
334.691	29.52
334.903	82.77
335.116	27.48
335.329	-97.45
335.541	117.59
335.754	150.36
335.966	-9.39
336.179	86.87
336.392	41.81
336.604	56.15
336.817	99.16
337.029	70.48
337.242	-54.44
337.454	66.39
337.667	37.72
337.88	138.07
338.092	93.01
338.305	88.92
338.517	-40.11
338.729	90.96
338.942	76.63
339.154	-48.3
339.367	-107.69
339.579	62.29
339.792	-54.44
340.004	101.2
340.217	58.2
340.429	-15.53
340.641	86.87
340.854	-64.68
341.066	17.24
341.278	21.33
341.491	152.4
341.703	68.44
341.915	25.43
342.128	62.29
342.34	-33.96
342.552	19.29
342.764	80.72
342.977	35.67
343.189	84.82
343.401	-3.24
343.613	-13.48
343.826	29.52
344.038	-17.58
344.25	41.81
344.462	-9.39
344.674	2.9
344.886	27.48
345.099	115.54
345.311	17.24
345.523	33.62
345.735	-72.87
345.947	19.29
346.159	43.86
346.371	109.4
346.583	-38.06
346.795	125.78
347.007	19.29
347.219	78.68
347.431	68.44
347.643	56.15
347.855	25.43
348.067	64.34
348.279	-66.73
348.491	74.58
348.703	88.92
348.915	33.62
349.127	33.62
349.339	68.44
349.551	-58.54
349.763	7
349.975	60.24
350.187	80.72
350.399	99.16
350.61	19.29
350.822	-5.29
351.034	37.72
351.246	39.76
351.458	11.09
351.669	146.26
351.881	127.83
352.093	70.48
352.305	68.44
352.517	58.2
352.728	72.53
352.94	-9.39
353.152	107.35
353.363	7
353.575	119.64
353.787	133.97
353.999	78.68
354.21	136.02
354.422	-95.4
354.633	2.9
354.845	47.96
355.057	37.72
355.268	33.62
355.48	117.59
355.692	-66.73
355.903	56.15
356.115	11.09
356.326	-136.36
356.538	131.92
356.749	80.72
356.961	138.07
357.172	9.05
357.384	-81.07
357.595	84.82
357.807	62.29
358.018	9.05
358.23	-21.67
358.441	140.12
358.653	35.67
358.864	-9.39
359.075	-15.53
359.287	64.34
359.498	58.2
359.709	105.3
359.921	84.82
360.132	103.25
360.344	15.19
360.555	-9.39
360.766	84.82
360.977	50
361.189	27.48
361.4	35.67
361.611	88.92
361.823	78.68
362.034	29.52
362.245	-95.4
362.456	-5.29
362.667	33.62
362.879	-64.68
363.09	86.87
363.301	56.15
363.512	9.05
363.723	-46.25
363.935	-3.24
364.146	56.15
364.357	-1.19
364.568	31.57
364.779	-79.02
364.99	43.86
365.201	41.81
365.412	105.3
365.623	-70.83
365.834	97.11
366.045	121.68
366.256	39.76
366.467	99.16
366.678	2.9
366.889	9.05
367.1	97.11
367.311	17.24
367.522	9.05
367.733	-7.34
367.944	-13.48
368.155	58.2
368.366	52.05
368.577	125.78
368.788	152.4
368.999	23.38
369.209	70.48
369.42	197.46
369.631	256.85
369.842	93.01
370.053	0.85
370.264	142.16
370.474	0.85
370.685	119.64
370.896	-31.91
371.107	97.11
371.317	47.96
371.528	60.24
371.739	80.72
371.95	76.63
372.16	66.39
372.371	-58.54
372.582	11.09
372.792	52.05
373.003	86.87
373.214	25.43
373.424	15.19
373.635	-40.11
373.846	234.32
374.056	-7.34
374.267	21.33
374.477	158.55
374.688	43.86
374.898	27.48
375.109	52.05
375.319	66.39
375.53	103.25
375.74	27.48
375.951	74.58
376.161	97.11
376.372	95.06
376.582	-5.29
376.793	37.72
377.003	68.44
377.214	-36.01
377.424	54.1
377.635	64.34
377.845	25.43
378.055	150.36
378.266	-13.48
378.476	-3.24
378.686	111.44
378.897	66.39
379.107	64.34
379.317	86.87
379.528	-29.87
379.738	103.25
379.948	-19.63
380.158	86.87
380.369	15.19
380.579	72.53
380.789	-60.59
380.999	72.53
381.21	82.77
381.42	203.6
381.63	21.33
381.84	80.72
382.05	17.24
382.261	103.25
382.471	74.58
382.681	-9.39
382.891	97.11
383.101	52.05
383.311	27.48
383.521	27.48
383.731	82.77
383.941	72.53
384.151	21.33
384.361	2.9
384.571	41.81
384.781	121.68
384.991	131.92
385.201	138.07
385.411	52.05
385.621	21.33
385.831	47.96
386.041	4.95
386.251	68.44
386.461	162.64
386.671	41.81
386.881	-70.83
387.091	58.2
387.301	58.2
387.511	-21.67
387.72	90.96
387.93	39.76
388.14	-79.02
388.35	29.52
388.56	60.24
388.769	41.81
388.979	76.63
389.189	19.29
389.399	66.39
389.609	113.49
389.818	66.39
390.028	11.09
390.238	117.59
390.447	-5.29
390.657	21.33
390.867	66.39
391.076	-68.78
391.286	74.58
391.496	19.29
391.705	58.2
391.915	41.81
392.125	133.97
392.334	-7.34
392.544	115.54
392.753	111.44
392.963	25.43
393.172	43.86
393.382	-13.48
393.591	58.2
393.801	9.05
394.01	181.07
394.22	95.06
394.429	29.52
394.639	2.9
394.848	-17.58
395.058	25.43
395.267	111.44
395.477	72.53
395.686	123.73
395.895	166.74
396.105	238.42
396.314	84.82
396.524	58.2
396.733	54.1
396.942	115.54
397.152	109.4
397.361	64.34
397.57	74.58
397.78	7
397.989	54.1
398.198	260.95
398.407	66.39
398.617	25.43
398.826	9.05
399.035	23.38
399.244	101.2
399.453	56.15
399.663	97.11
399.872	84.82
400.081	2.9
400.29	115.54
400.499	-38.06
400.708	86.87
400.917	68.44
401.127	-21.67
401.336	33.62
401.545	174.93
401.754	90.96
401.963	136.02
402.172	-21.67
402.381	-48.3
402.59	52.05
402.799	45.91
403.008	117.59
403.217	33.62
403.426	95.06
403.635	4.95
403.844	41.81
404.053	-36.01
404.262	47.96
404.471	162.64
404.68	43.86
404.888	35.67
405.097	-21.67
405.306	39.76
405.515	84.82
405.724	25.43
405.933	72.53
406.142	166.74
406.35	74.58
406.559	9.05
406.768	15.19
406.977	164.69
407.185	50
407.394	101.2
407.603	-19.63
407.812	52.05
408.02	82.77
408.229	-17.58
408.438	19.29
408.646	-40.11
408.855	33.62
409.064	109.4
409.272	43.86
409.481	101.2
409.69	-31.91
409.898	-54.44
410.107	93.01
410.315	80.72
410.524	-27.82
410.733	74.58
410.941	25.43
411.15	52.05
411.358	125.78
411.567	76.63
411.775	43.86
411.984	86.87
412.192	58.2
412.401	-11.43
412.609	131.92
412.818	109.4
413.026	60.24
413.234	19.29
413.443	35.67
413.651	-13.48
413.86	25.43
414.068	86.87
414.276	158.55
414.485	-31.91
414.693	127.83
414.901	201.55
415.11	76.63
415.318	78.68
415.526	43.86
415.734	129.88
415.943	64.34
416.151	64.34
416.359	60.24
416.567	35.67
416.776	21.33
416.984	58.2
417.192	170.83
417.4	21.33
417.608	39.76
417.817	-33.96
418.025	88.92
418.233	166.74
418.441	25.43
418.649	-62.63
418.857	47.96
419.065	74.58
419.273	-44.2
419.481	56.15
419.689	99.16
419.897	19.29
420.105	-70.83
420.313	99.16
420.521	117.59
420.729	219.99
420.937	47.96
421.145	15.19
421.353	113.49
421.561	84.82
421.769	56.15
421.977	27.48
422.185	60.24
422.393	-5.29
422.601	39.76
422.809	56.15
423.017	60.24
423.224	56.15
423.432	74.58
423.64	0.85
423.848	199.51
424.056	-21.67
424.263	195.41
424.471	62.29
424.679	136.02
424.887	-9.39
425.094	76.63
425.302	52.05
425.51	62.29
425.718	80.72
425.925	105.3
426.133	41.81
426.341	217.94
426.548	72.53
426.756	47.96
426.964	99.16
427.171	31.57
427.379	109.4
427.586	33.62
427.794	131.92
428.001	80.72
428.209	64.34
428.417	133.97
428.624	123.73
428.832	76.63
429.039	31.57
429.247	117.59
429.454	133.97
429.662	115.54
429.869	90.96
430.076	121.68
430.284	41.81
430.491	158.55
430.699	119.64
430.906	113.49
431.114	82.77
431.321	133.97
431.528	119.64
431.736	74.58
431.943	125.78
432.15	121.68
432.358	140.12
432.565	191.31
432.772	50
432.979	142.16
433.187	97.11
433.394	189.27
433.601	54.1
433.808	158.55
434.016	287.57
434.223	156.5
434.43	162.64
434.637	183.12
434.844	236.37
435.052	129.88
435.259	205.65
435.466	222.03
435.673	211.79
435.88	205.65
436.087	260.95
436.294	228.18
436.501	205.65
436.708	193.36
436.915	246.61
437.122	379.73
437.329	232.27
437.537	267.09
437.743	269.14
437.95	396.11
438.157	346.96
438.364	267.09
438.571	285.52
438.778	410.45
438.985	392.02
439.192	394.06
439.399	426.83
439.606	363.34
439.813	447.31
440.02	461.65
440.227	590.67
440.433	432.97
440.64	480.08
440.847	383.82
441.054	500.56
441.261	576.33
441.467	492.37
441.674	435.02
441.881	549.71
442.088	494.41
442.294	695.11
442.501	609.1
442.708	584.52
442.914	637.77
443.121	682.83
443.328	723.79
443.534	731.98
443.741	756.55
443.948	656.2
444.154	820.04
444.361	990.02
444.568	850.76
444.774	799.56
444.981	727.88
445.187	899.91
445.394	928.58
445.6	906.06
445.807	1184.58
446.013	1104.71
446.22	953.16
446.426	1102.66
446.633	1084.23
446.839	1440.58
447.046	1270.59
447.252	1393.47
447.459	1307.46
447.665	1229.63
447.871	1395.52
448.078	1567.55
448.284	1555.26
448.491	1583.93
448.697	1545.02
448.903	1798.97
449.11	1692.48
449.316	1690.43
449.522	1950.52
449.728	2026.29
449.935	1989.43
450.141	2140.98
450.347	2214.71
450.553	2165.56
450.76	2300.72
450.966	2335.54
451.172	2448.18
451.378	2609.97
451.584	2618.16
451.791	2747.18
451.997	2820.91
452.203	2857.77
452.409	3083.05
452.615	3081
452.821	3025.7
453.027	3009.32
453.233	3623.71
453.44	3380
453.646	3629.85
453.852	3824.41
454.058	3975.96
454.264	4031.26
454.47	4293.4
454.676	4330.26
454.882	4803.34
455.088	4420.37
455.294	4580.11
455.5	5083.91
455.705	5241.61
455.911	5313.28
456.117	5499.65
456.323	5772.03
456.529	5475.07
456.735	6183.67
456.941	6324.98
457.147	6523.63
457.352	6664.94
457.558	6808.3
457.764	7365.35
457.97	7555.81
458.176	7946.97
458.381	8153.82
458.587	8325.85
458.793	8809.17
458.999	8800.98
459.204	9947.84
459.41	10103.48
459.616	9964.22
459.821	10674.87
460.027	10947.25
460.233	11713.19
460.438	11707.04
460.644	12286.62
460.85	12315.29
461.055	12825.23
461.261	13505.16
461.466	13167.24
461.672	13570.69
461.878	15235.69
462.083	14871.15
462.289	15211.12
462.494	15622.76
462.7	15784.55
462.905	16149.09
463.111	17627.72
463.316	18520.63
463.522	18872.89
463.727	19180.08
463.932	20120.1
464.138	20372
464.343	21479.95
464.549	21539.34
464.754	23185.91
464.959	24095.21
465.165	24248.8
465.37	23857.64
465.575	24023.53
465.781	25512.4
465.986	26378.69
466.191	26112.45
466.397	26448.32
466.602	25827.79
466.807	27259.32
467.012	27632.05
467.218	28017.07
467.423	28185
467.628	29057.43
467.833	30253.45
468.038	29565.33
468.244	29491.6
468.449	30904.7
468.654	30286.22
468.859	30292.36
469.064	30161.29
469.269	29469.08
469.474	30069.13
469.679	30601.6
469.885	29680.02
470.09	30179.72
470.295	30177.67
470.5	29546.9
470.705	29866.38
470.91	29036.95
471.115	28840.35
471.32	29135.26
471.525	29020.57
471.73	28135.85
471.935	28326.31
472.139	26980.79
472.344	27031.99
472.549	27046.33
472.754	26169.8
472.959	25821.64
473.164	25166.29
473.369	24226.28
473.574	25221.59
473.778	24652.25
473.983	24408.54
474.188	23992.81
474.393	22671.87
474.598	22872.57
474.802	22153.73
475.007	21842.44
475.212	21991.94
475.417	20896.28
475.621	20791.83
475.826	20453.92
476.031	20021.8
476.235	19462.7
476.44	19677.74
476.645	19239.47
476.849	18989.62
477.054	18246.21
477.259	18041.41
477.463	18287.17
477.668	17556.04
477.872	17484.36
478.077	17289.81
478.282	16239.2
478.486	16636.5
478.691	16218.72
478.895	15929.95
479.1	15956.58
479.304	16046.69
479.509	15432.3
479.713	15770.21
479.918	15149.68
480.122	14922.35
480.326	14944.88
480.531	14969.46
480.735	14604.92
480.94	14334.59
481.144	15088.24
481.348	14215.8
481.553	14482.04
481.757	13988.48
481.961	13992.58
482.166	14127.74
482.37	14090.88
482.574	13843.07
482.778	13550.21
482.983	13781.64
483.187	13492.87
483.391	13535.88
483.595	13056.65
483.8	13107.85
484.004	13337.23
484.208	12970.64
484.412	12991.12
484.616	13009.55
484.821	12751.51
485.025	12206.75
485.229	12343.96
485.433	11944.61
485.637	12024.48
485.841	11657.89
486.045	11762.34
486.249	11696.8
486.453	11469.48
486.657	11317.93
486.861	11147.95
487.065	10707.63
487.269	10664.63
487.473	10259.13
487.677	10515.12
487.881	10543.8
488.085	10078.91
488.289	10019.52
488.493	9833.15
488.697	9749.18
488.901	9609.92
489.105	9292.49
489.309	9280.2
489.512	8946.38
489.716	8850.13
489.92	8649.43
490.124	8628.95
490.328	8440.53
490.531	8215.26
490.735	8225.5
490.939	7906.01
491.143	7686.88
491.346	7539.43
491.55	7701.22
491.754	7484.13
491.958	7514.85
492.161	7113.45
492.365	7242.47
492.569	7031.53
492.772	6879.98
492.976	6882.03
493.18	6562.55
493.383	6834.93
493.587	6679.28
493.79	6695.66
493.994	6288.12
494.197	6355.7
494.401	6316.79
494.605	6241.01
494.808	6155
495.012	6134.52
495.215	6155
495.419	6136.57
495.622	5950.2
495.825	6050.55
496.029	5817.08
496.232	6120.18
496.436	5784.32
496.639	5999.35
496.843	5942.01
497.046	5817.08
497.249	5925.63
497.453	5843.71
497.656	5856
497.859	5903.1
498.063	5989.11
498.266	5810.94
498.469	5872.38
498.673	5774.08
498.876	5894.91
499.079	5901.05
499.282	5933.82
499.485	6257.4
499.689	6124.28
499.892	6118.14
500.095	6054.65
500.298	6454
500.501	6128.38
500.705	6111.99
500.908	6187.77
501.111	6417.14
501.314	6400.76
501.517	6531.83
501.72	6462.19
501.923	6511.35
502.126	6691.57
502.329	6695.66
502.532	6712.05
502.735	6994.67
502.938	7052.01
503.141	6970.09
503.344	6996.71
503.547	7156.46
503.75	7318.25
503.953	7498.47
504.156	7420.64
504.359	7514.85
504.562	7572.19
504.765	7815.9
504.968	8116.95
505.17	8069.85
505.373	8112.86
505.576	8401.62
505.779	8311.51
505.982	8243.93
506.185	8788.69
506.387	8833.74
506.59	8905.42
506.793	9245.38
506.996	9226.95
507.198	9747.14
507.401	9659.07
507.604	9939.65
507.807	9808.58
508.009	10011.32
508.212	10558.13
508.415	10511.03
508.617	11051.69
508.82	11029.17
509.022	11096.75
509.225	11381.42
509.428	11557.54
509.63	11870.88
509.833	12077.73
510.035	12563.09
510.238	12671.64
510.44	12796.56
510.643	13296.27
510.845	13879.94
511.048	13689.48
511.25	14154.37
511.453	14426.75
511.655	15108.72
511.858	15028.85
512.06	15450.73
512.262	15907.43
512.465	16153.18
512.667	16312.92
512.87	16861.78
513.072	17074.77
513.274	17777.22
513.477	18238.02
513.679	18471.48
513.881	19077.68
514.084	19270.19
514.286	19587.63
514.488	20216.35
514.69	20847.13
514.893	20998.68
515.095	21371.41
515.297	21819.91
515.499	22376.96
515.701	22839.8
515.904	23474.67
516.106	23757.29
516.308	24371.68
516.51	24943.06
516.712	25072.09
516.914	25733.58
517.116	26261.96
517.318	26681.79
517.52	27083.19
517.722	27359.67
517.925	27961.77
518.127	28610.98
518.329	29401.49
518.531	29667.73
518.733	30036.36
518.935	30675.33
519.136	30974.33
519.338	31914.35
519.54	32278.89
519.742	32962.91
519.944	33280.35
520.146	34019.66
520.348	33849.68
520.55	34672.96
520.752	34869.57
520.954	35811.63
521.155	35742
521.357	36712.74
521.559	37021.98
521.761	37550.36
521.963	37712.15
522.164	38402.32
522.366	38320.4
522.568	39057.67
522.77	38924.55
522.971	39733.5
523.173	39381.24
523.375	40009.97
523.576	39854.33
523.778	40202.48
523.98	40681.7
524.181	40841.45
524.383	40808.68
524.584	41341.15
524.786	41625.82
524.988	41404.64
525.189	41648.35
525.391	41494.75
525.592	41943.25
525.794	42127.57
525.995	41760.98
526.197	41734.36
526.398	41619.67
526.6	41554.14
526.801	41599.19
527.003	41408.73
527.204	41464.03
527.406	41646.3
527.607	41091.3
527.808	41119.97
528.01	40452.33
528.211	40663.27
528.412	40814.82
528.614	40556.78
528.815	40165.62
529.016	40268.01
529.218	39022.85
529.419	39112.96
529.62	38723.85
529.822	38283.53
530.023	38168.85
530.224	38392.08
530.425	37525.78
530.626	36933.92
530.828	36657.45
531.029	37009.7
531.23	35856.69
531.431	35647.8
531.632	35369.27
531.833	35303.74
532.035	34689.35
532.236	34484.55
532.437	33972.56
532.638	33296.73
532.839	33018.21
533.04	32889.18
533.241	31799.66
533.442	32272.74
533.643	31492.47
533.844	31066.49
534.045	31046.01
534.246	29870.48
534.447	29997.45
534.648	29548.95
534.849	29204.89
535.05	28637.6
535.251	28359.08
535.451	28383.65
535.652	27734.45
535.853	27369.91
536.054	26997.18
536.255	26700.22
536.456	25907.66
536.657	26259.91
536.857	25637.33
537.058	25016.79
537.259	25201.11
537.46	24562.14
537.66	24218.08
537.861	24035.81
538.062	23542.25
538.263	23226.87
538.463	23212.53
538.664	22718.97
538.865	22438.4
539.065	22401.54
539.266	21608.97
539.466	21805.58
539.667	21088.79
539.868	21445.13
540.068	20826.65
540.269	20636.19
540.469	20627.99
540.67	20240.93
540.87	20027.94
541.071	19550.76
541.271	19679.79
541.472	19409.45
541.672	19280.43
541.873	18969.14
542.073	18420.28
542.274	18582.07
542.474	18557.5
542.675	17930.82
542.875	17957.44
543.075	17541.71
543.276	17476.17
543.476	17445.45
543.676	17132.11
543.877	16779.86
544.077	16747.09
544.277	16706.13
544.478	16384.6
544.678	16366.17
544.878	15964.77
545.078	15907.43
545.279	15448.68
545.479	15123.05
545.679	15266.41
545.879	14914.16
546.079	14936.69
546.28	14674.55
546.48	14525.05
546.68	14451.32
546.88	14359.16
547.08	14131.84
547.28	13933.18
547.48	13441.67
547.68	13802.11
547.88	13273.74
548.081	13374.09
548.281	13034.13
548.481	12845.71
548.681	12782.23
548.881	12716.69
549.081	12477.08
549.28	12255.9
549.48	12196.51
549.68	11981.47
549.88	11965.09
550.08	11524.77
550.28	11612.84
550.48	11551.4
550.68	11182.76
550.88	11074.22
551.08	10869.42
551.279	10678.96
551.479	10558.13
551.679	10582.71
551.879	10173.11
552.079	10232.51
552.278	10068.67
552.478	9980.61
552.678	9849.54
552.878	9708.23
553.077	9472.71
553.277	9263.82
553.477	9374.41
553.676	8983.24
553.876	8807.12
554.076	8637.14
554.275	8829.65
554.475	8602.32
554.674	8401.62
554.874	8227.54
555.074	7963.36
555.273	7883.49
555.473	7908.06
555.672	7576.29
555.872	7496.42
556.071	7453.41
556.271	7342.82
556.47	7211.75
556.67	7058.15
556.869	6867.69
557.068	6898.41
557.268	6732.53
557.467	6722.29
557.667	6593.26
557.866	6572.79
558.065	6431.48
558.265	6292.21
558.464	5976.83
558.663	5978.87
558.863	5858.04
559.062	5917.44
559.261	5827.32
559.461	5626.62
559.66	5423.87
559.859	5409.54
560.058	5294.85
560.258	5174.02
560.457	5186.31
560.656	5171.97
560.855	5014.28
561.054	5036.81
561.253	4885.26
561.453	4784.91
561.652	4696.85
561.851	4723.47
562.05	4578.06
562.249	4516.62
562.448	4465.43
562.647	4358.93
562.846	4307.73
563.045	4522.77
563.244	4225.81
563.443	4193.05
563.642	4117.27
563.841	4191
564.04	4021.02
564.239	3969.82
564.438	3834.65
564.637	3697.44
564.836	3724.06
565.035	3676.96
565.234	3509.02
565.432	3615.52
565.631	3599.13
565.83	3490.59
566.029	3269.41
566.228	3359.52
566.427	3351.33
566.625	3162.92
566.824	3257.12
567.023	3230.5
567.222	3097.38
567.42	3150.63
567.619	3023.66
567.818	3101.48
568.016	3105.57
568.215	2984.74
568.414	2829.1
568.612	2855.72
568.811	2898.73
569.01	2677.55
569.208	2661.16
569.407	2732.84
569.605	2753.32
569.804	2642.73
570.002	2573.1
570.201	2609.97
570.4	2437.94
570.598	2413.36
570.797	2259.76
570.995	2356.02
571.193	2157.36
571.392	2335.54
571.59	2167.6
571.789	2247.48
571.987	2278.19
572.186	2181.94
572.384	2116.41
572.582	2081.59
572.781	2042.68
572.979	1930.04
573.177	1946.42
573.376	2026.29
573.574	1975.1
573.772	1878.84
573.971	1882.94
574.169	1753.91
574.367	1841.98
574.565	1815.35
574.763	1805.11
574.962	1749.82
575.16	1753.91
575.358	1530.69
575.556	1545.02
575.754	1665.85
575.952	1588.03
576.151	1557.31
576.349	1672
576.547	1508.16
576.745	1467.2
576.943	1489.73
577.141	1502.01
577.339	1278.79
577.537	1428.29
577.735	1428.29
577.933	1309.51
578.131	1235.78
578.329	1407.81
578.527	1280.83
578.725	1321.79
578.923	1262.4
579.121	1350.46
579.319	1229.63
579.516	1237.83
579.714	1293.12
579.912	1198.92
580.11	1041.22
580.308	1196.87
580.506	1137.48
580.704	1043.27
580.901	1043.27
581.099	1112.9
581.297	1055.56
581.495	1026.89
581.692	869.19
581.89	1080.13
582.088	1059.65
582.285	975.69
582.483	904.01
582.681	920.39
582.878	987.97
583.076	957.25
583.274	869.19
583.471	908.1
583.669	906.06
583.866	803.66
584.064	787.27
584.262	842.57
584.459	811.85
584.657	779.08
584.854	850.76
585.052	850.76
585.249	797.51
585.447	877.38
585.644	748.36
585.841	789.32
586.039	717.64
586.236	752.46
586.434	633.68
586.631	691.02
586.828	695.11
587.026	695.11
587.223	650.06
587.42	641.87
587.618	731.98
587.815	633.68
588.012	711.5
588.21	607.05
588.407	648.01
588.604	781.13
588.801	502.61
588.999	609.1
589.196	652.11
589.393	514.89
589.59	527.18
589.787	607.05
589.984	602.96
590.182	580.43
590.379	564.04
590.576	633.68
590.773	557.9
590.97	588.62
591.167	598.86
591.364	529.23
591.561	518.99
591.758	613.2
591.955	650.06
592.152	537.42
592.349	549.71
592.546	564.04
592.743	543.57
592.94	502.61
593.137	637.77
593.334	625.48
593.531	627.53
593.727	523.09
593.924	555.85
594.121	451.41
594.318	527.18
594.515	578.38
594.712	670.54
594.908	592.72
595.105	512.85
595.302	592.72
595.499	584.52
595.696	676.68
595.892	535.37
596.089	588.62
596.286	576.33
596.482	744.27
596.679	666.44
596.876	582.48
597.072	662.35
597.269	705.35
597.466	758.6
597.662	660.3
597.859	709.45
598.055	764.75
598.252	748.36
598.448	766.79
598.645	869.19
598.841	928.58
599.038	924.49
599.234	1035.08
599.431	926.54
599.627	979.78
599.824	1012.55
600.02	969.54
600.217	1000.26
600.413	1108.8
600.609	1225.54
600.806	1350.46
601.002	1309.51
601.198	1276.74
601.395	1334.08
601.591	1352.51
601.787	1366.85
601.984	1461.06
602.18	1551.17
602.376	1577.79
602.572	1694.52
602.769	1698.62
602.965	1911.61
603.161	1923.9
603.357	1870.65
603.553	2065.21
603.75	2048.82
603.946	2063.16
604.142	2188.08
604.338	2341.68
604.534	2286.39
604.73	2374.45
604.926	2407.22
605.122	2530.09
605.318	2605.87
605.514	2755.37
605.71	2755.37
605.906	2923.3
606.102	3050.28
606.298	3042.09
606.494	3189.54
606.69	3326.75
606.886	3382.05
607.082	3310.37
607.278	3527.46
607.474	3636
607.67	3793.69
607.866	3715.87
608.062	3953.43
608.257	4107.03
608.453	4055.83
608.649	4381.46
608.845	4334.36
609.041	4363.03
609.236	4717.33
609.432	4752.14
609.628	5069.58
609.824	4948.75
610.019	5131.02
610.215	5143.3
610.411	5540.61
610.606	5554.94
610.802	5655.3
610.998	5645.06
611.193	6091.51
611.389	6159.1
611.584	6425.33
611.78	6361.84
611.976	6720.24
612.171	6857.45
612.367	6990.57
612.562	7154.41
612.758	7248.61
612.953	7414.5
613.149	7856.86
613.344	7863.01
613.539	8108.76
613.735	8342.23
613.93	8661.71
614.126	8932.05
614.321	8987.34
614.517	9226.95
614.712	9575.11
614.907	9841.34
615.103	9931.45
615.298	10226.36
615.493	10590.9
615.688	10396.34
615.884	11080.36
616.079	11143.85
616.274	11483.81
616.47	11786.91
616.665	12221.08
616.86	12300.95
617.055	12571.29
617.25	12843.67
617.445	13380.23
617.641	13476.49
617.836	14131.84
618.031	14211.71
618.226	14658.17
618.421	15223.41
618.616	15329.9
618.811	15866.47
619.006	16138.85
619.201	16454.23
619.396	17066.58
619.591	17029.71
619.786	17666.63
619.981	17834.57
620.176	18358.85
620.371	18582.07
620.566	18766.39
620.761	19405.36
620.956	20136.48
621.151	20218.4
621.346	20566.56
621.541	20777.5
621.735	21602.83
621.93	21711.37
622.125	22301.19
622.32	22194.69
622.515	22606.33
622.709	23196.15
622.904	23888.36
623.099	24310.24
623.294	24838.62
623.488	24848.86
623.683	25719.24
623.878	25784.78
624.072	26255.81
624.267	26782.14
624.462	27017.66
624.656	27562.42
624.851	28162.47
625.046	28664.22
625.24	28783.01
625.435	29139.35
625.629	29610.39
625.824	29940.11
626.018	30437.76
626.213	30269.83
626.407	31054.2
626.602	31412.6
626.796	31594.87
626.991	32143.72
627.185	32266.6
627.38	32389.48
627.574	32645.48
627.768	32854.37
627.963	32799.07
628.157	32706.91
628.352	33280.35
628.546	33050.97
628.74	33456.47
628.935	32864.61
629.129	33485.14
629.323	33233.24
629.517	33243.48
629.712	32506.21
629.906	32387.43
630.1	32108.91
630.294	32219.5
630.489	31717.75
630.683	31738.23
630.877	30697.86
631.071	30124.43
631.265	30085.51
631.459	29624.72
631.653	29053.34
631.848	28344.74
632.042	27460.02
632.236	26948.03
632.43	26102.22
632.624	25915.85
632.818	24820.19
633.012	24146.4
633.206	23429.62
633.4	22843.9
633.594	22098.44
633.788	21344.78
633.982	20681.24
634.176	19712.55
634.369	19126.83
634.563	18532.92
634.757	17601.1
634.951	17189.46
635.145	16667.22
635.339	15723.11
635.533	15186.54
635.726	14561.91
635.92	13884.03
636.114	13419.14
636.308	12792.47
636.501	12319.39
636.695	11760.29
636.889	11141.8
637.083	11043.5
637.276	10545.84
637.47	9968.32
637.664	9485
637.857	9333.45
638.051	8907.47
638.244	8563.41
638.438	8233.69
638.632	8131.29
638.825	7330.53
639.019	7348.97
639.212	7035.63
639.406	6769.39
639.599	6392.56
639.793	6114.04
639.986	5991.16
640.18	5673.73
640.373	5556.99
640.567	5276.42
640.76	5071.62
640.954	4864.78
641.147	4776.72
641.34	4393.75
641.534	4410.13
641.727	4295.44
641.92	3906.33
642.114	3836.7
642.307	3695.39
642.5	3654.43
642.694	3445.54
642.887	3304.23
643.08	3349.28
643.273	3085.09
643.467	3009.32
643.66	2876.2
643.853	2622.25
644.046	2685.74
644.239	2640.69
644.432	2374.45
644.626	2349.87
644.819	2300.72
645.012	2227
645.205	2147.12
645.398	1985.34
645.591	1866.55
645.784	1841.98
645.977	1739.58
646.17	1704.76
646.363	1633.08
646.556	1502.01
646.749	1434.43
646.942	1491.77
647.135	1426.24
647.328	1301.31
647.521	1334.08
647.714	1266.5
647.907	1272.64
648.099	1092.42
648.292	1227.59
648.485	1051.46
648.678	1117
648.871	996.17
649.064	969.54
649.256	895.82
649.449	897.86
649.642	844.62
649.835	779.08
650.027	762.7
650.22	865.1
650.413	756.55
650.605	742.22
650.798	699.21
650.991	680.78
651.183	721.74
651.376	662.35
651.568	686.92
651.761	482.13
651.954	680.78
652.146	555.85
652.339	541.52
652.531	580.43
652.724	471.89
652.916	424.78
653.109	396.11
653.301	516.94
653.494	467.79
653.686	490.32
653.879	613.2
654.071	490.32
654.263	383.82
654.456	355.15
654.648	486.22
654.84	459.6
655.033	369.49
655.225	422.73
655.417	256.85
655.61	512.85
655.802	459.6
655.994	389.97
656.186	205.65
656.379	312.14
656.571	281.43
656.763	285.52
656.955	273.23
657.148	281.43
657.34	379.73
657.532	256.85
657.724	310.1
657.916	285.52
658.108	328.53
658.3	289.62
658.492	289.62
658.684	314.19
658.876	332.62
659.068	228.18
659.26	172.88
659.452	205.65
659.644	199.51
659.836	322.38
660.028	193.36
660.22	168.79
660.412	246.61
660.604	166.74
660.796	203.6
660.988	260.95
661.18	152.4
661.372	248.66
661.563	174.93
661.755	265.04
661.947	156.5
662.139	166.74
662.331	248.66
662.522	219.99
662.714	90.96
662.906	111.44
663.097	219.99
663.289	201.55
663.481	115.54
663.673	244.56
663.864	140.12
664.056	236.37
664.247	133.97
664.439	217.94
664.631	166.74
664.822	166.74
665.014	152.4
665.205	191.31
665.397	101.2
665.588	258.9
665.78	183.12
665.971	246.61
666.163	78.68
666.354	142.16
666.546	142.16
666.737	162.64
666.929	211.79
667.12	119.64
667.311	205.65
667.503	131.92
667.694	183.12
667.885	162.64
668.077	181.07
668.268	123.73
668.459	166.74
668.651	162.64
668.842	90.96
669.033	133.97
669.224	123.73
669.416	295.76
669.607	174.93
669.798	105.3
669.989	228.18
670.18	205.65
670.371	203.6
670.563	158.55
670.754	246.61
670.945	170.83
671.136	191.31
671.327	158.55
671.518	201.55
671.709	314.19
671.9	203.6
672.091	224.08
672.282	191.31
672.473	174.93
672.664	150.36
672.855	133.97
673.046	195.41
673.237	246.61
673.428	197.46
673.619	222.03
673.809	154.45
674	353.1
674.191	154.45
674.382	88.92
674.573	179.03
674.764	181.07
674.954	303.95
675.145	166.74
675.336	201.55
675.527	84.82
675.717	191.31
675.908	142.16
676.099	152.4
676.289	193.36
676.48	117.59
676.671	191.31
676.861	179.03
677.052	199.51
677.243	244.56
677.433	203.6
677.624	205.65
677.814	232.27
678.005	209.75
678.195	320.34
678.386	133.97
678.576	201.55
678.767	90.96
678.957	224.08
679.148	318.29
679.338	414.54
679.529	330.58
679.719	222.03
679.909	283.47
680.1	281.43
680.29	275.28
680.481	172.88
680.671	269.14
680.861	338.77
681.052	258.9
681.242	222.03
681.432	322.38
681.622	316.24
681.813	256.85
682.003	240.47
682.193	246.61
682.383	262.99
682.573	232.27
682.764	238.42
682.954	256.85
683.144	346.96
683.334	306
683.524	287.57
683.714	289.62
683.904	367.44
684.094	260.95
684.284	318.29
684.474	285.52
684.664	365.39
684.854	371.54
685.044	281.43
685.234	314.19
685.424	254.8
685.614	281.43
685.804	283.47
685.994	357.2
686.184	297.81
686.374	353.1
686.564	383.82
686.753	338.77
686.943	254.8
687.133	281.43
687.323	328.53
687.513	355.15
687.702	424.78
687.892	326.48
688.082	353.1
688.272	371.54
688.461	281.43
688.651	377.68
688.841	394.06
689.03	267.09
689.22	318.29
689.41	256.85
689.599	355.15
689.789	230.23
689.979	469.84
690.168	238.42
690.358	355.15
690.547	383.82
690.737	293.71
690.926	303.95
691.116	289.62
691.305	379.73
691.495	404.3
691.684	273.23
691.874	301.9
692.063	287.57
692.252	353.1
692.442	363.34
692.631	222.03
692.82	269.14
693.01	289.62
693.199	283.47
693.388	306
693.578	205.65
693.767	252.75
693.956	336.72
694.146	285.52
694.335	242.51
694.524	367.44
694.713	301.9
694.902	279.38
695.092	289.62
695.281	328.53
695.47	215.89
695.659	297.81
695.848	332.62
696.037	228.18
696.226	314.19
696.415	295.76
696.604	349.01
696.793	351.06
696.982	215.89
697.171	363.34
697.36	246.61
697.549	344.91
697.738	275.28
697.927	303.95
698.116	318.29
698.305	297.81
698.494	316.24
698.683	181.07
698.872	385.87
699.061	289.62
699.25	219.99
699.438	353.1
699.627	254.8
699.816	459.6
700.005	205.65
700.193	140.12
700.382	420.69
700.571	279.38
700.76	283.47
700.948	316.24
701.137	205.65
701.326	332.62
701.514	176.98
701.703	353.1
701.892	234.32
702.08	416.59
702.269	240.47
702.457	240.47
702.646	346.96
702.834	246.61
703.023	254.8
703.212	287.57
703.4	287.57
703.589	252.75
703.777	260.95
703.965	217.94
704.154	306
704.342	174.93
704.531	269.14
704.719	281.43
704.907	299.86
705.096	285.52
705.284	260.95
705.472	293.71
705.661	306
705.849	349.01
706.037	346.96
706.226	349.01
706.414	322.38
706.602	353.1
706.79	314.19
706.979	213.84
707.167	230.23
707.355	181.07
707.543	351.06
707.731	285.52
707.919	383.82
708.107	297.81
708.296	185.17
708.484	224.08
708.672	361.3
708.86	215.89
709.048	238.42
709.236	164.69
709.424	308.05
709.612	336.72
709.8	109.4
709.988	301.9
710.176	369.49
710.364	306
710.551	301.9
710.739	269.14
710.927	254.8
711.115	322.38
711.303	338.77
711.491	377.68
711.679	275.28
711.866	367.44
712.054	322.38
712.242	297.81
712.43	353.1
712.617	271.19
712.805	336.72
712.993	248.66
713.181	158.55
713.368	281.43
713.556	260.95
713.744	252.75
713.931	469.84
714.119	275.28
714.306	289.62
714.494	363.34
714.682	334.67
714.869	166.74
715.057	312.14
715.244	297.81
715.432	285.52
715.619	273.23
715.807	240.47
715.994	256.85
716.182	359.25
716.369	299.86
716.556	363.34
716.744	232.27
716.931	254.8
717.119	435.02
717.306	306
717.493	314.19
717.681	267.09
717.868	244.56
718.055	353.1
718.242	265.04
718.43	379.73
718.617	369.49
718.804	289.62
718.991	449.36
719.179	371.54
719.366	271.19
719.553	400.21
719.74	320.34
719.927	295.76
720.114	314.19
720.301	269.14
720.488	336.72
720.676	242.51
720.863	379.73
721.05	461.65
721.237	322.38
721.424	392.02
721.611	373.58
721.798	308.05
721.985	344.91
722.172	320.34
722.358	392.02
722.545	402.26
722.732	248.66
722.919	346.96
723.106	306
723.293	297.81
723.48	379.73
723.667	277.33
723.853	379.73
724.04	430.93
724.227	443.21
724.414	297.81
724.6	404.3
724.787	312.14
724.974	473.93
725.161	318.29
725.347	351.06
725.534	351.06
725.72	414.54
725.907	377.68
726.094	459.6
726.28	295.76
726.467	330.58
726.653	324.43
726.84	443.21
727.027	516.94
727.213	428.88
727.4	396.11
727.586	349.01
727.773	369.49
727.959	363.34
728.145	344.91
728.332	412.5
728.518	232.27
728.705	478.03
728.891	387.92
729.077	330.58
729.264	367.44
729.45	357.2
729.636	451.41
729.823	330.58
730.009	422.73
730.195	379.73
730.382	420.69
730.568	344.91
730.754	334.67
730.94	355.15
731.126	306
731.313	467.79
731.499	279.38
731.685	396.11
731.871	473.93
732.057	449.36
732.243	396.11
732.429	430.93
732.615	387.92
732.801	412.5
732.987	367.44
733.173	371.54
733.359	416.59
733.545	322.38
733.731	435.02
733.917	473.93
734.103	422.73
734.289	449.36
734.475	328.53
734.661	574.28
734.847	377.68
735.033	420.69
735.219	363.34
735.404	371.54
735.59	406.35
735.776	396.11
735.962	504.65
736.148	410.45
736.333	514.89
736.519	471.89
736.705	361.3
736.89	418.64
737.076	377.68
737.262	346.96
737.447	363.34
737.633	346.96
737.819	482.13
738.004	516.94
738.19	389.97
738.375	328.53
738.561	533.33
738.747	453.45
738.932	363.34
739.118	564.04
739.303	410.45
739.489	402.26
739.674	381.78
739.859	351.06
740.045	359.25
740.23	379.73
740.416	322.38
740.601	398.16
740.786	428.88
740.972	353.1
741.157	385.87
741.342	314.19
741.528	394.06
741.713	486.22
741.898	322.38
742.084	301.9
742.269	478.03
742.454	475.98
742.639	443.21
742.824	371.54
743.01	402.26
743.195	445.26
743.38	400.21
743.565	400.21
743.75	404.3
743.935	439.12
744.12	437.07
744.305	346.96
744.49	473.93
744.675	426.83
744.86	318.29
745.045	457.55
745.23	478.03
745.415	383.82
745.6	551.76
745.785	346.96
745.97	500.56
746.155	383.82
746.34	365.39
746.525	426.83
746.71	527.18
746.895	338.77
747.079	332.62
747.264	279.38
747.449	426.83
747.634	387.92
747.819	281.43
748.003	340.82
748.188	250.71
748.373	441.17
748.557	398.16
748.742	355.15
748.927	355.15
749.111	377.68
749.296	336.72
749.481	338.77
749.665	396.11
749.85	312.14
750.034	400.21
750.219	346.96
750.404	273.23
750.588	328.53
750.773	306
750.957	308.05
751.141	342.86
751.326	353.1
751.51	211.79
751.695	322.38
751.879	254.8
752.064	353.1
752.248	385.87
752.432	375.63
752.617	369.49
752.801	344.91
752.985	230.23
753.17	334.67
753.354	346.96
753.538	318.29
753.722	244.56
753.907	262.99
754.091	228.18
754.275	297.81
754.459	244.56
754.643	228.18
754.828	289.62
755.012	248.66
755.196	248.66
755.38	299.86
755.564	308.05
755.748	172.88
755.932	349.01
756.116	306
756.3	314.19
756.484	183.12
756.668	244.56
756.852	166.74
757.036	246.61
757.22	224.08
757.404	232.27
757.588	219.99
757.772	224.08
757.956	260.95
758.14	351.06
758.323	101.2
758.507	299.86
758.691	183.12
758.875	306
759.059	396.11
759.242	174.93
759.426	246.61
759.61	244.56
759.794	150.36
759.977	269.14
760.161	449.36
760.345	291.66
760.528	275.28
760.712	254.8
760.895	158.55
761.079	215.89
761.263	201.55
761.446	156.5
761.63	199.51
761.813	201.55
761.997	211.79
762.18	156.5
762.364	252.75
762.547	58.2
762.731	236.37
762.914	236.37
763.098	162.64
763.281	193.36
763.464	207.7
763.648	262.99
763.831	123.73
764.015	170.83
764.198	281.43
764.381	205.65
764.564	185.17
764.748	189.27
764.931	232.27
765.114	144.21
765.297	224.08
765.481	154.45
765.664	129.88
765.847	162.64
766.03	226.13
766.213	72.53
766.397	148.31
766.58	72.53
766.763	314.19
766.946	211.79
767.129	240.47
767.312	113.49
767.495	176.98
767.678	123.73
767.861	191.31
768.044	142.16
768.227	99.16
768.41	127.83
768.593	234.32
768.776	232.27
768.959	131.92
769.142	275.28
769.324	131.92
769.507	123.73
769.69	164.69
769.873	133.97
770.056	312.14
770.239	164.69
770.421	181.07
770.604	207.7
770.787	93.01
770.97	164.69
771.152	68.44
771.335	150.36
771.518	115.54
771.7	287.57
771.883	250.71
772.066	58.2
772.248	179.03
772.431	224.08
772.613	160.59
772.796	99.16
772.978	115.54
773.161	197.46
773.343	133.97
773.526	39.76
773.708	35.67
773.891	-3.24
774.073	142.16
774.256	84.82
774.438	279.38
774.621	101.2
774.803	164.69
774.985	97.11
775.168	273.23
775.35	101.2
775.532	179.03
775.715	115.54
775.897	131.92
776.079	168.79
776.261	205.65
776.444	101.2
776.626	105.3
776.808	133.97
776.99	43.86
777.173	133.97
777.355	82.77
777.537	113.49
777.719	172.88
777.901	7
778.083	66.39
778.265	64.34
778.447	191.31
778.629	35.67
778.811	60.24
778.993	146.26
779.175	93.01
779.357	78.68
779.539	2.9
779.721	121.68
779.903	84.82
780.085	101.2
780.267	86.87
780.449	121.68
780.631	158.55
780.812	191.31
780.994	95.06
781.176	56.15
781.358	43.86
781.54	68.44
781.721	113.49
781.903	176.98
782.085	50
782.267	219.99
782.448	-13.48
782.63	72.53
782.812	43.86
782.993	148.31
783.175	39.76
783.357	41.81
783.538	99.16
783.72	52.05
783.901	50
784.083	95.06
784.264	107.35
784.446	-50.35
784.627	-27.82
784.809	58.2
784.99	80.72
785.172	138.07
785.353	17.24
785.535	60.24
785.716	33.62
785.897	-29.87
786.079	121.68
786.26	109.4
786.441	84.82
786.623	-5.29
786.804	37.72
786.985	158.55
787.167	158.55
787.348	19.29
787.529	39.76
787.71	234.32
787.891	90.96
788.073	39.76
788.254	23.38
788.435	99.16
788.616	99.16
788.797	-9.39
788.978	90.96
789.159	9.05
789.34	80.72
789.522	68.44
789.703	43.86
789.884	0.85
790.065	29.52
790.246	129.88
790.427	-11.43
790.607	140.12
790.788	144.21
790.969	-79.02
791.15	121.68
791.331	35.67
791.512	52.05
791.693	52.05
791.874	-23.72
792.054	99.16
792.235	78.68
792.416	-54.44
792.597	-85.16
792.778	66.39
792.958	82.77
793.139	117.59
793.32	56.15
793.5	-23.72
793.681	64.34
793.862	41.81
794.042	88.92
794.223	-13.48
794.404	23.38
794.584	-29.87
794.765	45.91
794.945	0.85
795.126	78.68
795.306	11.09
795.487	60.24
795.667	2.9
795.848	58.2
796.028	35.67
796.209	56.15
796.389	107.35
796.57	45.91
796.75	13.14
796.93	64.34
797.111	19.29
797.291	33.62
797.471	39.76
797.652	41.81
797.832	-5.29
798.012	97.11
798.192	-46.25
798.373	-72.87
798.553	9.05
798.733	-9.39
798.913	-27.82
799.093	41.81
799.274	25.43
799.454	62.29
799.634	84.82
799.814	119.64
799.994	29.52
800.174	109.4
800.354	15.19
800.534	13.14
800.714	58.2
800.894	27.48
801.074	-103.59
801.254	-9.39
801.434	45.91
801.614	9.05
801.794	-7.34
801.974	1409.86
802.154	-11.43
802.334	93.01
802.514	-7.34
802.693	54.1
802.873	62.29
803.053	99.16
803.233	23.38
803.413	11.09
803.592	-5.29
803.772	9.05
803.952	60.24
804.131	2.9
804.311	62.29
804.491	68.44
804.67	-103.59
804.85	-50.35
805.03	27.48
805.209	107.35
805.389	4.95
805.568	7
805.748	45.91
805.928	56.15
806.107	50
806.287	97.11
806.466	78.68
806.646	-15.53
806.825	39.76
807.004	-25.77
807.184	78.68
807.363	4.95
807.543	117.59
807.722	-46.25
807.901	62.29
808.081	60.24
808.26	-50.35
808.439	-29.87
808.619	76.63
808.798	-19.63
808.977	-48.3
809.156	150.36
809.336	35.67
809.515	64.34
809.694	-46.25
809.873	23.38
810.052	52.05
810.231	86.87
810.411	52.05
810.59	64.34
810.769	39.76
810.948	95.06
811.127	-97.45
811.306	-62.63
811.485	54.1
811.664	136.02
811.843	-64.68
812.022	54.1
812.201	11.09
812.38	-1.19
812.559	27.48
812.737	54.1
812.916	-13.48
813.095	-5.29
813.274	9.05
813.453	35.67
813.632	25.43
813.811	64.34
813.989	-21.67
814.168	68.44
814.347	-76.97
814.526	27.48
814.704	119.64
814.883	74.58
815.062	-103.59
815.24	115.54
815.419	-50.35
815.598	62.29
815.776	-64.68
815.955	-9.39
816.133	-83.11
816.312	66.39
816.49	-54.44
816.669	-46.25
816.847	43.86
817.026	43.86
817.204	-38.06
817.383	7
817.561	0.85
817.74	-13.48
817.918	84.82
818.097	-60.59
818.275	-5.29
818.453	72.53
818.632	19.29
818.81	-54.44
818.988	-62.63
819.167	-44.2
819.345	-5.29
819.523	-74.92
819.701	0.85
819.879	37.72
820.058	43.86
820.236	66.39
820.414	-42.15
820.592	-21.67
820.77	-56.49
820.948	2.9
821.127	-46.25
821.305	-19.63
821.483	-38.06
821.661	82.77
821.839	-54.44
822.017	-52.39
822.195	15.19
822.373	113.49
822.551	0.85
822.729	82.77
822.907	-11.43
823.085	39.76
823.262	39.76
823.44	-36.01
823.618	17.24
823.796	43.86
823.974	-40.11
824.152	-23.72
824.329	-13.48
824.507	11.09
824.685	86.87
824.863	-21.67
825.04	15.19
825.218	103.25
825.396	-17.58
825.574	9.05
825.751	-31.91
825.929	54.1
826.107	-17.58
826.284	-38.06
826.462	68.44
826.639	-23.72
826.817	-83.11
826.994	29.52
827.172	17.24
827.349	125.78
827.527	93.01
827.704	9.05
827.882	68.44
828.059	19.29
828.237	11.09
828.414	113.49
828.591	-29.87
828.769	0.85
828.946	-64.68
829.124	31.57
829.301	133.97
829.478	-42.15
829.655	7
829.833	45.91
830.01	-68.78
830.187	82.77
830.364	-7.34
830.542	-46.25
830.719	123.73
830.896	2.9
831.073	66.39
831.25	21.33
831.427	64.34
831.604	35.67
831.782	-1.19
831.959	60.24
832.136	-33.96
832.313	-44.2
832.49	-29.87
832.667	-29.87
832.844	-31.91
833.021	58.2
833.198	99.16
833.374	45.91
833.551	-29.87
833.728	-5.29
833.905	66.39
834.082	-1.19
834.259	9.05
834.436	142.16
834.612	2.9
834.789	15.19
834.966	23.38
835.143	23.38
835.319	-119.98
835.496	64.34
835.673	68.44
835.85	80.72
836.026	142.16
836.203	84.82
836.38	43.86
836.556	-13.48
836.733	-72.87
836.909	54.1
837.086	-27.82
837.262	-9.39
837.439	17.24
837.616	-58.54
837.792	-19.63
837.968	19.29
838.145	-36.01
838.321	-25.77
838.498	-23.72
838.674	41.81
838.851	19.29
839.027	-3.24
839.203	19.29
839.38	-19.63
839.556	25.43
839.732	39.76
839.909	-3.24
840.085	15.19
840.261	-111.78
840.437	11.09
840.614	2.9
840.79	56.15
840.966	-5.29
841.142	-33.96
841.318	-11.43
841.494	80.72
841.671	88.92
841.847	-19.63
842.023	-58.54
842.199	15.19
842.375	64.34
842.551	-144.55
842.727	-21.67
842.903	97.11
843.079	23.38
843.255	66.39
843.431	39.76
843.607	23.38
843.783	-107.69
843.959	-66.73
844.134	-50.35
844.31	39.76
844.486	-21.67
844.662	-56.49
844.838	39.76
845.013	60.24
845.189	68.44
845.365	35.67
845.541	43.86
845.716	47.96
845.892	95.06
846.068	0.85
846.244	17.24
846.419	-15.53
846.595	-89.26
846.77	-21.67
846.946	-9.39
847.122	-62.63
847.297	-64.68
847.473	121.68
847.648	-111.78
847.824	-23.72
847.999	-122.02
848.175	-17.58
848.35	23.38
848.526	-7.34
848.701	21.33
848.876	-44.2
849.052	72.53
849.227	-87.21
849.403	-72.87
849.578	-1.19
849.753	15.19
849.929	58.2
850.104	-46.25
850.279	-48.3
850.454	35.67
850.63	31.57
850.805	64.34
850.98	-81.07
851.155	-76.97
851.33	27.48
851.505	33.62
851.681	66.39
851.856	0.85
852.031	-23.72
852.206	29.52
852.381	-54.44
852.556	-5.29
852.731	15.19
852.906	-29.87
853.081	56.15
853.256	-3.24
853.431	-15.53
853.606	-64.68
853.781	-19.63
853.956	-111.78
854.131	-29.87
854.305	-46.25
854.48	23.38
854.655	-17.58
854.83	-64.68
855.005	-3.24
855.18	88.92
855.354	-13.48
855.529	-54.44
855.704	0.85
855.879	47.96
856.053	-15.53
856.228	-23.72
856.403	-1.19
856.577	52.05
856.752	-74.92
856.926	-50.35
857.101	64.34
857.276	19.29
857.45	64.34
857.625	33.62
857.799	41.81
857.974	19.29
858.148	-13.48
858.323	76.63
858.497	-1.19
858.672	-1.19
858.846	-31.91
859.02	15.19
859.195	-64.68
859.369	-54.44
859.543	29.52
859.718	-79.02
859.892	13.14
860.066	31.57
860.241	-48.3
860.415	0.85
860.589	-3.24
860.763	-11.43
860.938	31.57
861.112	-23.72
861.286	0.85
861.46	-31.91
861.634	-79.02
861.808	33.62
861.982	-74.92
862.157	-83.11
862.331	-169.13
862.505	-97.45
862.679	-58.54
862.853	-56.49
863.027	-1.19
863.201	117.59
863.375	-54.44
863.549	29.52
863.722	35.67
863.896	68.44
864.07	-91.31
864.244	-33.96
864.418	56.15
864.592	47.96
864.766	82.77
864.939	2.9
865.113	-25.77
865.287	64.34
865.461	-70.83
865.634	21.33
865.808	-38.06
865.982	-60.59
866.156	-42.15
866.329	-87.21
866.503	-44.2
866.676	68.44
866.85	50
867.024	-5.29
867.197	9.05
867.371	-21.67
867.544	19.29
867.718	-95.4
867.891	95.06
868.065	-62.63
868.238	80.72
868.412	72.53
868.585	13.14
868.759	-52.39
868.932	15.19
869.105	-111.78
869.279	86.87
869.452	47.96
869.625	-7.34
869.799	9.05
869.972	-54.44
870.145	-29.87
870.319	-54.44
870.492	-72.87
870.665	-25.77
870.838	-66.73
871.011	-122.02
871.185	0.85
871.358	-48.3
871.531	39.76
871.704	-11.43
871.877	-5.29
872.05	-62.63
872.223	-60.59
872.396	37.72
872.569	27.48
872.742	-5.29
872.915	58.2
873.088	-58.54
873.261	-56.49
873.434	60.24
873.607	-7.34
873.78	23.38
873.953	-46.25
874.126	0.85
874.299	56.15
874.471	-72.87
874.644	-1.19
874.817	25.43
874.99	107.35
875.163	-64.68
875.335	-17.58
875.508	-29.87
875.681	119.64
875.853	-48.3
876.026	7
876.199	23.38
876.371	58.2
876.544	0.85
876.717	70.48
876.889	-40.11
877.062	27.48
877.234	-23.72
877.407	-56.49
877.579	-74.92
877.752	13.14
877.924	-13.48
878.097	0.85
878.269	-40.11
878.442	9.05
878.614	74.58
878.786	31.57
878.959	-13.48
879.131	-46.25
879.303	-76.97
879.476	15.19
879.648	39.76
879.82	-13.48
879.993	-99.5
880.165	-15.53
880.337	-31.91
880.509	2.9
880.681	-187.56
880.854	-52.39
881.026	-19.63
881.198	125.78
881.37	27.48
881.542	9.05
881.714	-25.77
881.886	-48.3
882.058	-29.87
882.23	13.14
882.402	21.33
882.574	25.43
882.746	90.96
882.918	74.58
883.09	84.82
883.262	-15.53
883.434	-29.87
883.606	-70.83
883.778	-19.63
883.95	111.44
884.122	2.9
884.293	25.43
884.465	-31.91
884.637	64.34
884.809	-56.49
884.98	7
885.152	43.86
885.324	-15.53
885.496	-23.72
885.667	-85.16
885.839	-3.24
886.011	72.53
886.182	21.33
886.354	62.29
886.525	-29.87
886.697	62.29
886.869	-66.73
887.04	7
887.212	54.1
887.383	88.92
887.555	68.44
887.726	-74.92
887.897	-62.63
888.069	52.05
888.24	80.72
888.412	68.44
888.583	43.86
888.754	27.48
888.926	-70.83
889.097	-54.44
889.268	-152.74
889.44	-87.21
889.611	-95.4
889.782	-64.68
889.953	-103.59
890.125	117.59
890.296	-7.34
890.467	-72.87
890.638	-15.53
890.809	52.05
890.98	15.19
891.151	43.86
891.323	-1.19
891.494	2.9
891.665	27.48
891.836	-3.24
892.007	-33.96
892.178	-68.78
892.349	-42.15
892.52	-160.94
892.691	-27.82
892.862	-68.78
893.032	-42.15
893.203	9.05
893.374	-101.55
893.545	21.33
893.716	-56.49
893.887	86.87
894.057	-21.67
894.228	-3.24
894.399	-68.78
894.57	15.19
894.74	25.43
894.911	60.24
895.082	-15.53
895.253	19.29
895.423	-60.59
895.594	4.95
895.764	-5.29
895.935	-95.4
896.106	31.57
896.276	-42.15
896.447	-13.48
896.617	-54.44
896.788	-54.44
896.958	-21.67
897.129	-23.72
897.299	-13.48
897.47	29.52
897.64	109.4
897.81	-36.01
897.981	-3.24
898.151	-40.11
898.322	23.38
898.492	-5.29
898.662	-99.5
898.832	19.29
899.003	-25.77
899.173	58.2
899.343	-27.82
899.513	2.9
